name,ttm,03/31/2022,12/31/2021,09/30/2021,06/30/2021,03/31/2021,12/31/2020,09/30/2020,06/30/2020,03/31/2020,12/31/2019,09/30/2019,06/30/2019,03/31/2019,12/31/2018,09/30/2018,06/30/2018,03/31/2018,12/31/2017,09/30/2017,06/30/2017,03/31/2017,12/31/2016,09/30/2016,06/30/2016,03/31/2016,12/31/2015,09/30/2015,06/30/2015,03/31/2015,12/31/2014,09/30/2014,06/30/2014,03/31/2014,12/31/2013,09/30/2013,06/30/2013,03/31/2013,12/31/2012,09/30/2012,06/30/2012,03/31/2012,12/31/2011,09/30/2011,06/30/2011,03/31/2011,12/31/2010,09/30/2010,06/30/2010,03/31/2010,12/31/2009,09/30/2009,06/30/2009,03/31/2009,12/31/2008,09/30/2008,06/30/2008,03/31/2008,12/31/2007,09/30/2007,06/30/2007,03/31/2007,12/31/2006,09/30/2006,06/30/2006,03/31/2006,12/31/2005,09/30/2005,06/30/2005,03/31/2005,12/31/2004,09/30/2004,06/30/2004,03/31/2004,12/31/2003,09/30/2003,06/30/2003,03/31/2003,12/31/2002,09/30/2002,06/30/2002,03/31/2002,12/31/2001,09/30/2001,06/30/2001,03/31/2001,12/31/2000,09/30/2000,06/30/2000,03/31/2000,12/31/1999,09/30/1999,06/30/1999,03/31/1999,12/31/1998,09/30/1998,06/30/1998,03/31/1998,12/31/1997,09/30/1997,06/30/1997,03/31/1997,12/31/1996,09/30/1996,06/30/1996,03/31/1996,12/31/1995,09/30/1995,06/30/1995,03/31/1995,12/31/1994,09/30/1994,06/30/1994,03/31/1994,12/31/1993,09/30/1993,06/30/1993,03/31/1993,12/31/1992,09/30/1992,06/30/1992,03/31/1992,12/31/1991,09/30/1991,06/30/1991,03/31/1991,12/31/1990,09/30/1990,06/30/1990,03/31/1990
OperatingCashFlow,"7,749,000,000","828,000,000","3,166,000,000","2,196,000,000","1,559,000,000","1,870,000,000","1,121,238,000","1,213,553,000","88,074,000","2,584,918,000","1,807,204,000","2,061,664,000","2,686,543,000","1,607,769,000","2,085,228,000","2,189,597,000","1,941,617,000","1,552,166,000","1,327,548,000","961,363,000","1,078,376,000","898,049,000","804,745,000","759,581,000","503,146,000","291,591,000","615,813,000","1,131,432,000","887,373,000","960,547,000","2,110,438,000","2,336,469,000","1,934,575,000","2,267,673,000","2,001,230,000","2,012,472,000","1,890,777,000","1,424,935,000","1,227,187,000","1,436,372,000","1,495,613,000","1,077,605,000","1,236,887,000","1,272,283,000","1,111,752,000","957,488,000","622,875,000","784,387,000","681,053,000","620,287,000","828,763,000","816,458,000","671,379,000","605,839,000","1,033,563,000","1,537,065,000","1,141,044,000","921,577,000","747,417,000","724,260,000","723,208,000","698,480,000","599,005,000","603,116,000","589,665,000","786,767,000","865,214,000","518,807,000","503,566,000","481,839,000","359,299,000","392,904,000","294,856,000","397,288,000","305,849,000","361,240,000","366,650,000","286,562,000","205,539,000","188,940,000","152,647,000","121,444,000","143,985,000","232,650,000","341,585,000","479,207,000","355,107,000","284,710,000","152,750,000","174,843,000","163,600,000","123,400,000","86,000,000","69,100,000","84,600,000","125,100,000","82,000,000","111,900,000","182,400,000","105,700,000","107,500,000","135,300,000","80,500,000","100,300,000","97,000,000","87,300,000","106,200,000","59,600,000","73,000,000","96,600,000","92,600,000","113,800,000","115,700,000","103,800,000","104,700,000","180,500,000","124,400,000","70,100,000","115,500,000","71,800,000","47,600,000","71,500,000","62,300,000","59,000,000","52,400,000","68,200,000","52,500,000","67,700,000","43,100,000","76,300,000"
	CashFlowFromContinuingOperatingActivities,"7,749,000,000","828,000,000","3,166,000,000","2,196,000,000","1,559,000,000","1,870,000,000","1,121,238,000","1,213,553,000","88,074,000","2,584,918,000","1,807,204,000","2,061,664,000","2,686,543,000","1,607,769,000","2,085,228,000","2,189,597,000","1,941,617,000","1,552,166,000","1,327,548,000","961,363,000","1,078,376,000","898,049,000","804,745,000","759,581,000","503,146,000","291,591,000","615,813,000","1,131,432,000","887,373,000","960,547,000","2,110,438,000","2,336,469,000","1,934,575,000","2,267,673,000","2,001,230,000","2,012,472,000","1,890,777,000","1,424,935,000","1,227,187,000","1,436,372,000","1,495,613,000","1,077,605,000","1,236,887,000","1,272,283,000","1,111,752,000","957,488,000","622,875,000","784,387,000","681,053,000","620,287,000","828,763,000","816,458,000","671,379,000","605,839,000","1,033,563,000","1,537,065,000","1,141,044,000","921,577,000","747,417,000","724,260,000","723,208,000","698,480,000","599,005,000","603,116,000","589,665,000","786,767,000","865,214,000","518,807,000","503,566,000","481,839,000","359,299,000","392,904,000","294,856,000","397,288,000","305,849,000","361,240,000","366,650,000","286,562,000","205,539,000","188,940,000","152,647,000","121,444,000","143,985,000","232,650,000","341,585,000","479,207,000","355,107,000","284,710,000","152,750,000","174,843,000","163,600,000","123,400,000","86,000,000","69,100,000","84,600,000","125,100,000","82,000,000","111,900,000","182,400,000","105,700,000","107,500,000","135,300,000","80,500,000","100,300,000","97,000,000","87,300,000","106,200,000","59,600,000","73,000,000","96,600,000","92,600,000","113,800,000","115,700,000","103,800,000","104,700,000","180,500,000","124,400,000","70,100,000","115,500,000","71,800,000","47,600,000","71,500,000","62,300,000","59,000,000","52,400,000","68,200,000","52,500,000","67,700,000","43,100,000","76,300,000"
		NetIncomeFromContinuingOperations,"4,377,000,000","390,000,000","1,985,000,000","1,095,000,000","907,000,000","677,000,000","337,466,000","-42,467,000","-909,384,000","9,813,000","636,521,000","615,122,000","847,841,000","635,426,000","892,768,000","1,190,952,000","696,731,000","638,589,000","2,430,468,000","100,541,000","23,053,000","28,517,000","-142,352,000","-190,000,000","-292,558,000","-471,776,000","-284,296,000","-4,075,739,000","5,268,000","-169,748,000","444,588,000","1,103,618,000","706,353,000","660,928,000","580,194,000","462,498,000","659,692,000","494,725,000","-504,999,000","355,491,000","395,778,000","324,009,000",,"540,878,000","295,574,000","133,973,000","53,673,000","-70,906,000","59,872,000","118,015,000","400,427,000","4,196,000","-16,706,000","158,710,000","461,472,000","1,556,285,000","178,206,000","240,956,000","361,195,000","204,003,000","307,053,000","217,667,000","242,625,000","299,136,000","331,417,000","426,707,000","463,656,000","343,761,000","249,456,000","202,703,000","206,755,000","172,310,000","144,937,000","100,853,000","74,510,000","117,419,000","108,791,000","129,425,000","44,419,000","28,887,000","38,108,000","-24,241,000","-24,797,000","71,963,000","136,203,000","215,247,000","161,447,000","116,477,000","77,517,000","41,490,000","30,500,000","512,900,000","20,600,000","5,100,000","10,000,000","5,900,000","13,300,000","27,000,000","43,200,000","31,200,000","24,500,000","23,100,000","35,100,000","31,400,000","47,600,000","25,900,000","31,400,000","32,900,000","48,200,000","29,600,000","42,600,000","40,900,000","34,200,000","30,300,000","38,500,000","35,800,000","33,500,000","30,200,000","40,100,000","20,600,000","14,600,000","22,300,000","22,300,000","13,500,000","7,200,000","11,900,000","20,200,000","8,500,000","5,600,000","11,200,000"
		OperatingGainsLosses,"3,557,000,000","2,795,000,000","-107,000,000","493,000,000","376,000,000","373,000,000","-63,704,000","74,954,000","113,129,000","-1,222,233,000","-57,616,000","-85,379,000","-185,309,000","24,416,000","-211,999,000","-63,863,000","192,200,000","74,740,000","110,252,000","14,808,000","-530,000","-45,262,000","-38,247,000","-113,321,000","59,923,000","-14,582,000","-1,314,000","-28,054,000","54,057,000","-77,815,000","-1,182,044,000","-529,471,000","225,414,000","144,238,000","-51,462,000","264,568,000","-135,734,000","7,773,000","131,586,000","179,043,000","-117,479,000","-68,075,000","-92,507,000","-490,048,000","-345,368,000","42,892,000","-97,949,000","-144,386,000","-1,830,000","38,234,000","-259,169,000","313,379,000","344,849,000","-37,425,000","-252,997,000","-410,722,000","-375,849,000","387,305,000","4,708,000","39,412,000","-26,150,000","112,403,000","68,183,000","-21,493,000","-39,416,000","-34,613,000","37,310,000","57,615,000","56,594,000","45,993,000","-10,326,000","14,139,000","49,847,000","104,810,000","109,436,000","23,617,000","62,270,000","66,096,000","64,589,000","47,633,000","22,762,000","86,493,000","131,164,000","11,025,000","18,520,000","59,435,000","99,647,000","-7,757,000","52,665,000","8,783,000","30,000,000","-536,100,000","-11,400,000","-8,900,000","40,500,000","32,100,000","26,400,000","19,500,000","66,400,000","-11,000,000","16,500,000","18,800,000","76,000,000","-7,100,000","2,800,000","14,100,000","17,400,000","16,300,000","-28,700,000","14,500,000","25,700,000","24,900,000","-20,500,000","1,600,000","66,200,000","23,200,000","12,300,000","1,600,000","17,000,000","14,400,000","8,900,000","12,800,000","-44,200,000","6,300,000","11,000,000","11,900,000","22,200,000","-500,000","5,000,000","15,500,000"
			GainLossOnSaleOfPPE,,,,,,,,"70,976,000","-13,233,000","-16,460,000","-119,963,000","523,000","-8,009,000","3,836,000","-79,904,000","-115,944,000","6,317,000","14,969,000","65,220,000","8,202,000","8,916,000","16,758,000","-104,034,000","-108,204,000","15,550,000","-9,147,000","3,656,000","1,185,000","5,564,000","-1,607,000","-431,890,000","-60,346,000","-3,856,000","-11,498,000","-11,996,000","-8,183,000","-13,153,000","-164,233,000",,,,"-67,468,000","-49,928,000","-207,468,000","-163,771,000","-71,742,000","-151,097,000",,,,,,,,,,,,,,,,,,,,,,,,,,,,,,,,,,,,,,,,,,,,,,,,,,,,,,,,,,,,,,,,,,,,,,,,,,,,,,,,,,,
			GainLossOnInvestmentSecurities,"3,605,000,000","2,820,000,000","-136,000,000","494,000,000","427,000,000","367,000,000","-69,304,000","3,978,000","126,362,000","-1,205,773,000","62,347,000","-85,902,000","-177,300,000","20,580,000","-132,095,000","52,081,000","185,883,000","59,771,000","45,032,000","6,606,000","-9,446,000","-62,020,000","65,787,000","-5,117,000","44,373,000","-5,435,000","-4,970,000","-29,239,000","48,493,000","-76,208,000","-750,154,000","-469,125,000","229,270,000","155,736,000","-39,466,000","272,751,000","-122,581,000","172,006,000","89,117,000","244,495,000","118,331,000","-134,208,000","-145,514,000","-357,664,000","-214,558,000","91,683,000","18,724,000","-74,645,000","-21,148,000","15,157,000","264,677,000","310,363,000","311,206,000","-40,419,000",,,,,,,,,,,,,,,,,,,,,,,,,,,,,,,,,,,,,,,,,,,,,,,,,,,,,,,,,,,,,,,,,,,,,,,,,,,,
		DepreciationAmortizationDepletion,"3,598,000,000","847,000,000","910,000,000","927,000,000","914,000,000","900,000,000","870,564,000","823,050,000","706,679,000","1,000,060,000","959,208,000","953,597,000","957,304,000","879,595,000","919,963,000","918,180,000","848,674,000","748,591,000","881,745,000","846,222,000","865,384,000","816,036,000","862,524,000","899,511,000","862,491,000","928,891,000","769,457,000","722,172,000","909,227,000","912,788,000","1,013,930,000","1,040,018,000","996,602,000","946,491,000","915,257,000","928,800,000","910,531,000","846,388,000","786,344,000","825,851,000","808,765,000","748,743,000","693,527,000","651,684,000","602,944,000","568,226,000","543,789,000","500,888,000","465,343,000","431,906,000","398,937,000","385,330,000","375,592,000","389,329,000","368,135,000","346,247,000","315,294,000","297,199,000","282,234,000","279,189,000","259,780,000","244,342,000","230,438,000","216,071,000","192,928,000","177,652,000","176,974,000","164,372,000","159,896,000","153,016,000","144,125,000","130,257,000","116,224,000","113,797,000","121,265,000","110,438,000","106,587,000","103,553,000","105,412,000","100,208,000","97,956,000","94,460,000","97,617,000","103,351,000","97,470,000","93,961,000","103,239,000","92,056,000","90,149,000","84,582,000","91,000,000","198,100,000","88,800,000","82,000,000","118,100,000","73,500,000","62,200,000","61,300,000","74,200,000","93,700,000","58,300,000","52,000,000","69,600,000","59,400,000","69,800,000","52,500,000","58,100,000","56,200,000","48,600,000","53,100,000","60,600,000","54,600,000","62,200,000","64,800,000","67,100,000","64,200,000","58,600,000","59,800,000","52,700,000","45,300,000","42,000,000","39,800,000","51,200,000","33,100,000","38,500,000","38,100,000","46,400,000","37,900,000","37,100,000","34,500,000"
			DepreciationAndAmortization,,,,,,,,,,,,,,,,,,,,,,,,,,,,,,,,,,,,,,,,,,,,,,,,,,,,,,,"368,135,000","346,247,000","315,294,000","297,199,000","282,234,000","279,189,000","259,780,000","244,342,000","230,438,000","216,071,000","192,928,000","177,652,000","176,974,000","164,372,000","159,896,000","153,016,000","144,125,000","130,257,000","116,224,000","113,797,000","121,265,000","110,438,000","106,587,000","103,553,000","105,412,000","100,208,000","97,956,000","94,460,000","97,617,000","103,351,000","97,470,000","93,961,000","103,239,000","92,056,000","90,149,000","84,582,000","91,000,000","198,100,000","88,800,000","82,000,000","118,100,000","73,500,000","62,200,000","61,300,000","74,200,000","93,700,000","58,300,000","52,000,000","69,600,000","59,400,000","69,800,000","52,500,000","58,100,000","56,200,000","48,600,000","53,100,000","60,600,000","54,600,000","62,200,000","64,800,000","67,100,000","64,200,000","58,600,000","59,800,000","52,700,000","45,300,000","42,000,000","39,800,000","51,200,000","33,100,000","38,500,000","38,100,000","46,400,000","37,900,000","37,100,000","34,500,000"
		DeferredTax,"-551,000,000","-465,000,000","122,000,000","-111,000,000","-97,000,000","-36,000,000","54,613,000","-33,311,000","-252,466,000","44,774,000","123,082,000","184,282,000","217,970,000","106,324,000","212,454,000","334,116,000","176,224,000","171,362,000","-1,588,722,000","79,688,000","34,468,000","694,000","-22,717,000","-108,195,000","-187,598,000","-196,696,000","-105,277,000","-2,222,227,000","-57,562,000","-97,241,000","730,424,000","495,413,000","246,301,000","232,808,000","217,079,000","169,054,000","287,853,000","200,779,000","-92,940,000","107,052,000","168,678,000","110,148,000","21,000","293,149,000","174,840,000","31,290,000","23,178,000","28,574,000","-12,202,000","36,695,000","134,599,000","-22,368,000","-21,054,000","83,215,000","342,931,000","667,369,000","39,940,000","83,390,000","98,822,000","104,414,000","126,592,000","96,999,000","127,377,000","104,913,000","47,226,000","106,326,000","98,276,000","62,737,000","64,350,000","44,928,000","46,015,000","74,000,000","52,200,000","32,016,000","68,295,000","43,456,000","29,534,000","50,441,000","43,954,000","34,501,000","13,568,000","-9,844,000","-5,370,000","82,508,000","53,355,000","34,452,000","16,126,000","40,889,000","23,669,000","17,045,000","-8,700,000","-21,900,000","8,400,000","-4,100,000","-21,800,000","-17,000,000","6,500,000","5,500,000","8,200,000","2,100,000","800,000","5,600,000","4,000,000","-6,500,000","11,300,000","-6,500,000","29,600,000","-10,200,000","21,000,000","4,800,000","-24,000,000","24,300,000",,,"-30,100,000","56,900,000","500,000","-1,700,000","300,000","-12,500,000","-400,000","-5,300,000","-700,000","-11,100,000","-2,300,000","-4,900,000","-11,500,000","-9,700,000","-1,200,000","700,000"
			DeferredIncomeTax,"-551,000,000","-465,000,000","122,000,000","-111,000,000","-97,000,000","-36,000,000","54,613,000","-33,311,000","-252,466,000","44,774,000","123,082,000","184,282,000","217,970,000","106,324,000","212,454,000","334,116,000","176,224,000","171,362,000","-1,588,722,000","79,688,000","34,468,000","694,000","-22,717,000","-108,195,000","-187,598,000","-196,696,000","-105,277,000","-2,222,227,000","-57,562,000","-97,241,000","730,424,000","495,413,000","246,301,000","232,808,000","217,079,000","169,054,000","287,853,000","200,779,000","-92,940,000","107,052,000","168,678,000","110,148,000","21,000","293,149,000","174,840,000","31,290,000","23,178,000","28,574,000","-12,202,000","36,695,000","134,599,000","-22,368,000","-21,054,000","83,215,000","342,931,000","667,369,000","39,940,000","83,390,000","98,822,000","104,414,000","126,592,000","96,999,000","127,377,000","104,913,000","47,226,000","106,326,000","98,276,000","62,737,000","64,350,000","44,928,000","46,015,000","74,000,000","52,200,000","32,016,000","68,295,000","43,456,000","29,534,000","50,441,000","43,954,000","34,501,000","13,568,000","-9,844,000","-5,370,000","82,508,000","53,355,000","34,452,000","16,126,000","40,889,000","23,669,000","17,045,000","-8,700,000","-21,900,000","8,400,000","-4,100,000","-21,800,000","-17,000,000","6,500,000","5,500,000","8,200,000","2,100,000","800,000","5,600,000","4,000,000","-6,500,000","11,300,000","-6,500,000","29,600,000","-10,200,000","21,000,000","4,800,000","-24,000,000","24,300,000",,,"-30,100,000","56,900,000","500,000","-1,700,000","300,000","-12,500,000","-400,000","-5,300,000","-700,000","-11,100,000","-2,300,000","-4,900,000","-11,500,000","-9,700,000","-1,200,000","700,000"
		AssetImpairmentCharge,"387,000,000","55,000,000","206,000,000","82,000,000","44,000,000","44,000,000","142,440,000","78,990,000","305,415,000","1,572,935,000","228,135,000","105,275,000","112,130,000","72,356,000","186,087,000","44,617,000","51,708,000","64,609,000","153,442,000","53,677,000","78,934,000","193,187,000","297,946,000","177,990,000","72,714,000","71,617,000","168,171,000","6,307,420,000","68,519,000","69,436,000","535,637,000","55,542,000","39,035,000","113,361,000","109,509,000","85,917,000","37,967,000","53,548,000","1,020,496,000","62,875,000","54,217,000","133,147,000","499,624,000","83,431,000","358,654,000","89,328,000","239,782,000","352,908,000","80,362,000","69,595,000","123,911,000","69,404,000","47,046,000","65,471,000",,,,,,,,,,,,,,,,,,,,,,,,,,,,,,,,,,,,,,,,,,,,,,,,,,,,,,,,,,,,,,,,,,,,,,,,,,,,
		StockBasedCompensation,"152,000,000","35,000,000","35,000,000","51,000,000","31,000,000","35,000,000","32,942,000","33,811,000","39,571,000","40,072,000","42,415,000","54,670,000","38,566,000","39,087,000","39,047,000","49,001,000","31,803,000","35,486,000","32,312,000","43,476,000","27,601,000","30,460,000","31,018,000","37,601,000","27,091,000","32,380,000","28,651,000","40,276,000","28,598,000","33,052,000","41,450,000","38,492,000","29,579,000","35,565,000","30,884,000","45,447,000","27,288,000","30,436,000","26,441,000","45,871,000","27,128,000","28,338,000","33,288,000","41,630,000","25,997,000","27,430,000","25,678,000","36,747,000","22,459,000","22,494,000","20,648,000","26,053,000","22,072,000","26,407,000",,,,,,,,,,,,,,,,,,,,,,,,,,,,,,,,,,,,,,,,,,,,,,,,,,,,,,,,,,,,,,,,,,,,,,,,,,,,
		ExcessTaxBenefitFromStockBasedCompensation,,,,,,,,,,,,,,,,,,,"0","0",,,"-7,286,000","-10,260,000","-11,811,000","0","-1,839,000","-7,826,000","-7,535,000","-8,858,000","-11,632,000","-24,068,000","-36,337,000","-27,422,000","-5,601,000","-28,361,000","-10,196,000","-11,673,000","-17,609,000","-27,311,000","-5,464,000","-16,651,000",,,,,"0","0","0","0",,,,,,,,,,,,,,,,,,,,,,,,,,,,,,,,,,,,,,,,,,,,,,,,,,,,,,,,,,,,,,,,,,,,,,,,,,,,,,,,
		OtherNonCashItems,"-821,000,000","-285,000,000","-82,000,000","-280,000,000","-174,000,000","-11,000,000","85,502,000","288,737,000","648,096,000","75,575,000","91,609,000","130,848,000","17,363,000","24,868,000","-85,325,000","-87,816,000","-49,756,000","-20,430,000","19,234,000","4,821,000","-2,690,000","-1,568,000","23,192,000","-18,000","13,143,000","24,782,000","81,311,000","99,583,000","191,932,000","396,462,000","276,427,000","-33,996,000","-82,133,000","-16,654,000","27,990,000","19,724,000","38,966,000","17,252,000","27,644,000","-4,077,000","226,363,000","-219,877,000","976,167,000","67,475,000","80,332,000","8,742,000","222,463,000","-69,255,000","-64,039,000","-72,364,000","132,017,000","-165,614,000","175,449,000","2,288,000","100,417,000","-1,019,028,000","1,156,606,000","52,357,000","-62,416,000","64,116,000","31,223,000","38,253,000","42,142,000","48,380,000","90,773,000","-33,187,000","3,371,000","-21,784,000","26,301,000","-6,459,000","15,257,000",,,"2,815,000","7,664,000",,,"-3,969,000","-40,624,000","-9,451,000","58,413,000","-13,916,000","40,400,000","-32,876,000","-2,818,000","-7,833,000",,,,"23,207,000",,,,"17,000,000","-24,900,000","-2,700,000","-5,500,000","20,100,000","-51,700,000","-3,200,000","28,200,000","1,300,000","-44,600,000","-4,800,000","-43,200,000","17,500,000","-79,700,000","-2,600,000","5,300,000","-2,900,000","30,900,000","-52,500,000","45,500,000","7,100,000","-41,500,000","0",,,"2,100,000","2,400,000","-5,000,000","100,000","56,600,000",,,"100,000","100,000","-100,000","-300,000","200,000"
		ChangeInWorkingCapital,"-2,950,000,000","-2,544,000,000","97,000,000","-61,000,000","-442,000,000","-112,000,000","-338,585,000","-10,211,000","-562,966,000","1,063,922,000","-216,150,000","103,249,000","680,678,000","-174,303,000","132,233,000","-195,590,000","-5,967,000","-160,781,000","-711,183,000","-181,870,000","52,156,000","-124,015,000","-199,333,000","66,273,000","-40,249,000","-83,025,000","-39,051,000","295,827,000","-305,131,000","-97,529,000","261,658,000","190,921,000","-190,239,000","178,358,000","177,380,000","64,825,000","74,410,000","-214,293,000","-149,776,000","-108,423,000","-62,373,000","37,823,000","97,192,000","84,084,000","-81,221,000","55,607,000","-387,739,000","149,817,000","131,088,000","-24,288,000","-46,473,000","206,078,000","-255,869,000","-82,156,000","13,605,000","396,914,000","-173,153,000","-139,630,000","62,874,000","33,126,000","24,710,000","-11,184,000","-111,760,000","-43,891,000","-33,263,000","143,882,000","85,627,000","-87,894,000","-53,031,000","41,658,000","-42,527,000","20,138,000","-65,537,000","42,997,000","-75,321,000","88,374,000","55,499,000","-58,984,000","-12,211,000","-12,838,000","-78,160,000","-11,508,000","-95,029,000","-3,321,000","38,855,000","83,945,000","-229,000","43,045,000","-68,043,000","-264,000","30,800,000","-29,600,000","-3,400,000","-22,000,000","-37,300,000","33,300,000","-20,900,000","-21,500,000","42,100,000","-7,100,000","-20,800,000","34,500,000","-59,600,000","27,900,000","8,700,000","-16,200,000","49,400,000","-33,000,000","-21,400,000","-2,500,000","-43,200,000","21,600,000",,,,,"19,400,000","-19,800,000","3,300,000","1,600,000","-12,500,000","1,800,000","-22,900,000","17,100,000","-1,900,000","11,100,000","-24,900,000","31,600,000","-3,100,000","14,200,000"
			ChangeInReceivables,"-1,391,000,000","-878,000,000","-182,000,000","-145,000,000","-186,000,000","-308,000,000","-464,105,000","-260,829,000","469,294,000","722,163,000","-85,937,000","63,891,000","239,250,000","-308,996,000","185,349,000","-243,778,000","-200,097,000","-109,654,000","-366,686,000","-129,231,000","75,098,000","28,688,000","-220,939,000","10,712,000","-154,970,000","132,398,000","193,101,000","150,128,000","-54,917,000","353,100,000","426,025,000","-91,707,000","-105,019,000","-144,317,000","190,133,000","-48,937,000","71,948,000","-236,757,000","-66,509,000","-227,593,000","205,367,000","-89,948,000","-210,815,000","36,335,000","-51,445,000","-113,855,000","-214,313,000","-85,538,000","56,495,000","-95,770,000","-166,917,000","-29,922,000","-7,905,000","156,926,000","315,112,000","175,579,000","-217,842,000","-177,684,000","-163,307,000","57,549,000","-2,201,000","22,935,000","-100,612,000","-58,833,000","34,200,000","135,150,000","-144,129,000","-166,347,000","-10,599,000","5,518,000","-96,447,000","5,106,000","-52,054,000","-8,404,000","-20,251,000","28,515,000","66,614,000","-111,034,000","-62,482,000","10,624,000","-18,827,000","9,105,000","7,416,000","38,614,000","44,381,000","55,824,000","-75,833,000","-38,253,000","-46,996,000","-30,410,000","-12,100,000","-20,000,000","-4,500,000","23,700,000","-7,900,000","4,100,000","1,200,000","39,000,000","1,800,000","-26,300,000","22,900,000","50,500,000","-100,100,000","-4,100,000","-20,900,000","4,700,000","-8,400,000","-11,800,000","-13,300,000","16,000,000","-31,900,000","11,400,000",,,,,"5,900,000","-10,600,000","-16,500,000","-4,300,000","-17,800,000","25,900,000","-30,800,000","7,500,000","17,100,000","5,400,000","-27,200,000","-1,600,000","-2,000,000","18,200,000"
				ChangesInAccountReceivables,"-1,391,000,000","-878,000,000","-182,000,000","-145,000,000","-186,000,000","-308,000,000","-464,105,000","-260,829,000","469,294,000","722,163,000","-85,937,000","63,891,000","239,250,000","-308,996,000","185,349,000","-243,778,000","-200,097,000","-109,654,000","-366,686,000","-129,231,000","75,098,000","28,688,000","-220,939,000","10,712,000","-154,970,000","132,398,000","193,101,000","150,128,000","-54,917,000","353,100,000","426,025,000","-91,707,000","-105,019,000","-144,317,000","190,133,000","-48,937,000","71,948,000","-236,757,000","-66,509,000","-227,593,000","205,367,000","-89,948,000","-210,815,000","36,335,000","-51,445,000","-113,855,000","-214,313,000","-85,538,000","56,495,000","-95,770,000","-166,917,000","-29,922,000","-7,905,000","156,926,000",,,,,,,,,,,,,,,,,,,,,,,,,,,,,,,,,,,,,,,,,,,,,,,,,,,,,,,,,,,,,,,,,,,,,,,,,,,,
			ChangeInInventory,"-91,000,000","-14,000,000","-108,000,000","-6,000,000","37,000,000","64,000,000","30,633,000","7,439,000","-18,095,000","102,670,000","34,686,000","66,857,000","7,720,000","-18,979,000","-108,591,000","-94,598,000","-85,420,000","-106,799,000","-156,874,000","-11,545,000","-30,865,000","24,736,000","33,131,000","41,750,000","38,235,000","57,578,000","31,443,000","-10,602,000","99,781,000","-62,172,000","-42,792,000","-9,410,000","-40,808,000","-68,948,000","-7,745,000","39,062,000","37,143,000","-15,058,000","-1,996,000","-51,190,000","-113,784,000","10,208,000","-9,012,000","-40,549,000","-59,329,000","-67,733,000","-37,610,000","-66,818,000","-14,051,000","-53,312,000","-26,554,000","-1,441,000","745,000","-22,896,000","-46,695,000","-36,178,000","-12,461,000","3,285,000","5,406,000","6,708,000","6,368,000","-8,844,000","3,651,000","-18,955,000","-21,696,000","-13,370,000","-8,349,000","-2,551,000","-3,484,000","-8,701,000","-9,081,000","-486,000","-6,495,000","-1,836,000","-1,134,000","-1,816,000","-690,000","646,000","-825,000","-1,045,000","1,244,000","569,000","2,705,000","-1,152,000","-117,000","-3,684,000","-11,000","904,000","-410,000","1,862,000","1,700,000","-900,000","3,200,000","1,200,000","-4,500,000","-200,000","-500,000","-2,300,000","0","-2,600,000","-1,300,000","-7,400,000","-1,300,000","-3,600,000","-2,100,000","-2,000,000","-100,000","3,800,000","600,000","-300,000","2,100,000","-1,300,000",,,,,"-3,800,000","1,200,000","400,000","200,000","2,100,000","1,000,000",,"1,800,000","-1,000,000","-300,000","300,000","-300,000","1,800,000","200,000"
			ChangeInPayablesAndAccruedExpense,"1,096,000,000","743,000,000","367,000,000","138,000,000","-152,000,000","415,000,000","365,715,000","35,727,000","-1,624,758,000","378,953,000","-13,639,000","42,167,000","-128,947,000","309,080,000","-153,748,000","22,122,000","402,910,000","75,602,000","197,328,000","25,347,000","55,767,000","-18,187,000","105,951,000","22,821,000","177,129,000","-287,167,000","-164,763,000","-297,116,000","-259,750,000","-675,770,000","-183,049,000","279,958,000","-38,404,000","501,611,000","35,447,000","52,211,000","-28,884,000","195,069,000","-65,529,000","-64,245,000","-40,744,000","231,462,000","97,052,000","63,063,000","38,316,000","245,245,000","114,276,000","238,447,000","105,025,000","143,842,000","317,017,000","52,913,000","-94,422,000","-338,144,000","-191,196,000","-34,046,000","162,043,000","93,452,000","185,524,000","28,179,000","-8,780,000","23,431,000","117,420,000","109,817,000","4,310,000","-9,535,000","169,172,000","62,305,000","43,286,000","-26,352,000","78,603,000","20,942,000","22,789,000","14,382,000","29,720,000","25,675,000","3,683,000","20,670,000","26,280,000","5,494,000","2,032,000","-52,818,000","-30,975,000","28,556,000","-19,633,000","-4,897,000","40,692,000","51,058,000","-14,665,000","20,289,000","25,700,000","25,000,000","-12,400,000","-33,900,000","-39,100,000","11,300,000","8,900,000","-46,300,000","16,800,000","14,600,000","-30,600,000","-12,300,000","44,100,000","27,900,000","33,600,000","-18,100,000","14,600,000","18,000,000","-9,400,000","-20,700,000","7,600,000","-16,800,000",,,,,"17,300,000","-10,400,000","35,700,000","19,200,000","8,500,000","-17,100,000","-1,100,000","10,800,000","-17,900,000","8,600,000","-4,200,000","29,300,000","-3,100,000","1,100,000"
				ChangeInPayable,"1,096,000,000","743,000,000","367,000,000","138,000,000","-152,000,000","415,000,000","365,715,000","35,727,000","-1,624,758,000","378,953,000","-13,639,000","42,167,000","-128,947,000","309,080,000","-153,748,000","22,122,000","402,910,000","75,602,000","197,328,000","25,347,000","55,767,000","-18,187,000","105,951,000","22,821,000","177,129,000","-287,167,000","-164,763,000","-297,116,000","-259,750,000","-675,770,000","-183,049,000","279,958,000","-38,404,000","501,611,000","35,447,000","52,211,000","-28,884,000","195,069,000","-65,529,000","-64,245,000","-40,744,000","231,462,000","97,052,000","157,374,000","23,753,000","165,497,000","127,270,000","272,540,000","111,036,000","143,842,000","317,017,000","52,913,000","-94,422,000","-338,144,000",,,,,,,,,,,,,,,,,,,,,,,,,,,,,,,,,,,,,,,,,,,,,,,,,,,,,,,,,,,,,,,,,,,,,,,,,,,,
					ChangeInTaxPayable,"682,000,000","613,000,000","26,000,000","206,000,000","-163,000,000","243,000,000","-61,491,000","73,482,000","-6,482,000","-54,605,000","-47,925,000","34,767,000","-61,718,000","114,998,000","-55,570,000","-59,426,000","585,000","21,950,000","-13,970,000","-10,843,000","-511,000","-38,613,000","-21,214,000","20,676,000","90,860,000","2,460,000","-65,777,000","13,451,000","62,019,000","2,105,000","-159,926,000","60,744,000","-24,133,000","139,801,000","1,945,000","48,381,000","15,812,000","9,004,000","35,303,000","28,428,000","19,526,000","-5,163,000","-8,650,000",,,,,,,"-3,790,000","108,884,000","-212,000","-32,221,000","14,478,000",,,,,,,,,,,,,,,,,,,,,,,,,,,,,,,,,,,,,,,,,,,,,,,,,,,,,,,,,,,,,,,,,,,,,,,,,,,,
						ChangeInIncomeTaxPayable,"682,000,000","613,000,000","26,000,000","206,000,000","-163,000,000","243,000,000","-61,491,000","73,482,000","-6,482,000","-54,605,000","-47,925,000","34,767,000","-61,718,000","114,998,000","-55,570,000","-59,426,000","585,000","21,950,000","-13,970,000","-10,843,000","-511,000","-38,613,000","-21,214,000","20,676,000","90,860,000","2,460,000","-65,777,000","13,451,000","62,019,000","2,105,000","-159,926,000","60,744,000","-24,133,000","139,801,000","1,945,000","48,381,000","15,812,000","9,004,000","35,303,000","28,428,000","19,526,000","-5,163,000","-8,650,000",,,,,,,"-3,790,000","108,884,000","-212,000","-32,221,000","14,478,000",,,,,,,,,,,,,,,,,,,,,,,,,,,,,,,,,,,,,,,,,,,,,,,,,,,,,,,,,,,,,,,,,,,,,,,,,,,,
					ChangeInAccountPayable,"414,000,000","130,000,000","341,000,000","-68,000,000","11,000,000","172,000,000","427,206,000","-37,755,000","-1,618,276,000","433,558,000","34,286,000","7,400,000","-67,229,000","194,082,000","-98,178,000","81,548,000","402,325,000","53,652,000","211,298,000","36,190,000","56,278,000","20,426,000","127,165,000","2,145,000","86,269,000","-289,627,000","-98,986,000","-310,567,000","-321,769,000","-677,875,000","-23,123,000","219,214,000","-14,271,000","361,810,000","33,502,000","3,830,000","-44,696,000","186,065,000","-100,832,000","-92,673,000","-60,270,000","236,625,000","105,702,000","56,135,000","23,753,000","165,497,000","127,270,000","272,540,000","107,246,000","147,632,000","208,133,000","53,125,000","-62,201,000","-352,622,000",,,,,,,,,,,,,,,,,,,,,,,,,,,,,,,,,,,,,,,,,,,,,,,,,,,,,,,,,,,,,,,,,,,,,,,,,,,,
				ChangeInAccruedExpense,,,,,,,,,,,,,,,,,,,,,,,,,,,,,,,,,,,,,,,,,,,,,"14,563,000","79,748,000","-12,994,000","-34,093,000",,,,,,,,,,,,,,,,,,,,,,,,,,,,,,,,,,,,,,,,,,,,,,,,,,,,,,,,,,,,,,,,,,,,,,,,,,,,,,,,,,
					ChangeInInterestPayable,,,,,,,,,,,,,,,,,,,,,,,,,,,,,,,,,,,,,,,,,,,,,"14,563,000","79,748,000","-12,994,000","-34,093,000",,,,,,,,,,,,,,,,,,,,,,,,,,,,,,,,,,,,,,,,,,,,,,,,,,,,,,,,,,,,,,,,,,,,,,,,,,,,,,,,,,
			ChangeInOtherCurrentAssets,"-246,000,000","-213,000,000","-81,000,000","167,000,000","-119,000,000","-103,000,000","-90,336,000","161,879,000","194,682,000","58,296,000","-36,572,000","-92,814,000","494,322,000","-6,935,000","-22,101,000","-40,491,000","-53,980,000","-8,863,000","-574,669,000","-22,851,000","-16,412,000","-44,677,000","-28,110,000","21,063,000","-37,535,000","3,946,000","-28,822,000","70,851,000","16,938,000","59,176,000","47,518,000","79,487,000","-128,917,000","-12,536,000","-30,768,000","13,506,000","-45,112,000","-47,193,000",,,,,,,,,,,,,,,,,,,,,,,,,,,,,,,,,,,,,,,,,,,,,,,,,,,,,,,,,,,,,,,,,,,,,,,,,,,,,,,,,,,,,,,,,,,,
			ChangeInOtherCurrentLiabilities,"-2,277,000,000","-2,250,000,000","201,000,000","-260,000,000","32,000,000","-89,000,000","20,837,000","51,664,000","1,675,000","-66,078,000","-38,304,000","39,791,000","-4,014,000","-54,092,000","25,725,000","38,392,000","-24,113,000","-29,055,000","-20,647,000","-2,355,000","-15,618,000","-51,251,000","-53,024,000","35,234,000","-6,427,000","7,992,000","-50,574,000","33,165,000","-16,993,000","-31,855,000","8,802,000","9,517,000","86,270,000","-29,169,000","-31,271,000","62,289,000","1,533,000","-52,933,000",,,,,,,,,,,,,,,,,"-69,726,000","228,485,000","-63,473,000","-29,265,000","-17,168,000","-49,025,000","24,224,000","1,967,000","-57,241,000","-37,613,000","-40,768,000","29,298,000","80,084,000","6,978,000","-45,597,000","45,473,000","12,248,000","11,843,000","-36,207,000","28,549,000","-43,739,000","25,080,000","1,655,000","21,902,000","-37,628,000","-34,176,000","5,656,000","-10,702,000","-23,674,000","-78,090,000","8,055,000","51,668,000","56,703,000","7,556,000","-5,972,000","7,995,000","15,500,000","-33,700,000","10,300,000","-13,000,000","14,200,000","18,100,000","-30,500,000","-11,900,000","23,500,000","7,200,000","-11,800,000","3,700,000","-2,300,000","7,700,000","-1,900,000","-800,000","43,300,000","-43,000,000","700,000","2,500,000","-21,000,000","28,300,000",,,,,,,"-16,300,000","-13,500,000","-5,300,000","-8,000,000","9,500,000","-3,000,000","-100,000","-2,600,000","6,200,000","4,200,000","200,000","-5,300,000"
			ChangeInOtherWorkingCapital,"-41,000,000","68,000,000","-100,000,000","45,000,000","-54,000,000","-91,000,000","-201,329,000","-6,091,000","414,236,000","-132,082,000","-76,384,000","-16,643,000","72,347,000","-94,381,000","205,599,000","122,763,000","-45,267,000","17,988,000","210,365,000","-41,235,000","-15,814,000","-63,324,000","-36,342,000","-65,307,000","-56,681,000","2,228,000","-19,436,000","349,401,000","-90,190,000","259,992,000","5,154,000","-76,924,000","36,639,000","-68,283,000","21,584,000","-53,306,000","37,782,000","-57,421,000","66,664,000","234,605,000","-113,212,000","-113,899,000","219,967,000","25,235,000","-8,763,000","-8,050,000","-250,092,000",,,"-19,048,000","-170,019,000","184,528,000","-154,287,000","121,958,000","6,110,000","63,074,000","-41,420,000","-29,418,000","52,419,000","-10,285,000","5,099,000","-50,673,000","-74,978,000","-38,307,000","-9,309,000","2,339,000","-11,151,000","11,721,000","-36,637,000","25,720,000","-27,850,000","-17,267,000","6,430,000","10,306,000","-39,917,000","10,920,000","-15,763,000","8,832,000","62,444,000","6,265,000","-68,265,000","42,338,000","-50,501,000","8,751,000","6,169,000","-14,966,000",,,,,,,,,,,,,,,,,,,,,,,,,,,,,,,,,,,,,,,,,,,,
InvestingCashFlow,"-3,554,000,000","-956,000,000","-837,000,000","-933,000,000","-828,000,000","-821,000,000","-636,848,000","-334,473,000","-845,242,000","-1,530,943,000","-1,197,027,000","-1,456,466,000","-1,632,674,000","-1,891,006,000","-1,291,894,000","-1,788,650,000","-1,633,191,000","-1,456,427,000","-1,231,925,000","-1,036,389,000","-882,668,000","-836,427,000","10,667,000","-382,484,000","-312,375,000","-568,752,000","-774,858,000","-1,678,216,000","-1,062,960,000","-1,804,222,000","-1,382,448,000","-2,018,553,000","-2,289,004,000","-1,823,560,000","-1,551,435,000","-1,876,713,000","-1,726,891,000","-1,159,739,000","-1,440,924,000","-1,823,782,000","-1,479,237,000","-1,375,320,000","-1,748,410,000","-1,411,454,000","-1,167,331,000","-1,427,747,000","-1,277,530,000","-1,394,788,000","-1,190,778,000","-1,039,678,000","-763,190,000","-899,036,000","-727,198,000","-1,025,127,000","-1,467,328,000","-1,492,700,000","-1,199,772,000","-806,718,000","-863,203,000","-870,374,000","-863,986,000","-858,211,000","-818,399,000","-712,086,000","-621,616,000","-558,272,000","-499,969,000","-411,309,000","-389,757,000","-377,073,000","-403,587,000","-364,733,000","-345,079,000","-283,509,000","-591,562,000","-320,157,000","-189,190,000","-167,601,000","-214,381,000","-214,246,000","-203,004,000","-240,907,000","-284,285,000","-324,443,000","-277,294,000","-202,033,000","-218,649,000","-237,811,000","-128,542,000","-82,159,000","-121,300,000","-101,500,000","-55,000,000","-85,600,000","-148,400,000","-330,900,000","-117,400,000","-162,900,000","-198,900,000","-151,700,000","-191,900,000","-154,600,000","-230,800,000","-134,400,000","-47,700,000","-98,700,000","-109,700,000","-120,800,000","-76,400,000","-84,400,000","-169,700,000","-105,500,000","-105,000,000","-114,600,000","-143,100,000","-98,900,000","-115,500,000","-155,100,000","-160,900,000","263,200,000","-57,100,000","-46,300,000","-82,900,000","-40,200,000","-57,400,000","-50,100,000","-89,700,000","-30,000,000","-78,000,000","-55,500,000"
	CashFlowFromContinuingInvestingActivities,"-3,554,000,000","-956,000,000","-837,000,000","-933,000,000","-828,000,000","-821,000,000","-636,848,000","-334,473,000","-845,242,000","-1,530,943,000","-1,197,027,000","-1,456,466,000","-1,632,674,000","-1,891,006,000","-1,291,894,000","-1,788,650,000","-1,633,191,000","-1,456,427,000","-1,231,925,000","-1,036,389,000","-882,668,000","-836,427,000","10,667,000","-382,484,000","-312,375,000","-568,752,000","-774,858,000","-1,678,216,000","-1,062,960,000","-1,804,222,000","-1,382,448,000","-2,018,553,000","-2,289,004,000","-1,823,560,000","-1,551,435,000","-1,876,713,000","-1,726,891,000","-1,159,739,000","-1,440,924,000","-1,823,782,000","-1,479,237,000","-1,375,320,000","-1,748,410,000","-1,411,454,000","-1,167,331,000","-1,427,747,000","-1,277,530,000","-1,394,788,000","-1,190,778,000","-1,039,678,000","-763,190,000","-899,036,000","-727,198,000","-1,025,127,000","-1,467,328,000","-1,492,700,000","-1,199,772,000","-806,718,000","-863,203,000","-870,374,000","-863,986,000","-858,211,000","-818,399,000","-712,086,000","-621,616,000","-558,272,000","-499,969,000","-411,309,000","-389,757,000","-377,073,000","-403,587,000","-364,733,000","-345,079,000","-283,509,000","-591,562,000","-320,157,000","-189,190,000","-167,601,000","-214,381,000","-214,246,000","-203,004,000","-240,907,000","-284,285,000","-324,443,000","-277,294,000","-202,033,000","-218,649,000","-237,811,000","-128,542,000","-82,159,000","-121,300,000","-101,500,000","-55,000,000","-85,600,000","-148,400,000","-330,900,000","-117,400,000","-162,900,000","-198,900,000","-151,700,000","-191,900,000","-154,600,000","-230,800,000","-134,400,000","-47,700,000","-98,700,000","-109,700,000","-120,800,000","-76,400,000","-84,400,000","-169,700,000","-105,500,000","-105,000,000","-114,600,000","-143,100,000","-98,900,000","-115,500,000","-155,100,000","-160,900,000","263,200,000","-57,100,000","-46,300,000","-82,900,000","-40,200,000","-57,400,000","-50,100,000","-89,700,000","-30,000,000","-78,000,000","-55,500,000"
		NetPPEPurchaseAndSale,"-3,942,000,000","-1,009,000,000","-1,014,000,000","-896,000,000","-1,023,000,000","-917,000,000","-841,162,000","-486,139,000","-448,573,000","-1,688,826,000","-1,368,294,000","-1,490,854,000","-1,562,942,000","-2,000,436,000","-1,302,159,000","-1,649,172,000","-1,683,933,000","-1,441,211,000","-1,056,696,000","-1,094,053,000","-1,026,930,000","-946,563,000","-740,905,000","-653,757,000","-614,942,000","-573,191,000","-842,803,000","-1,356,915,000","-1,267,846,000","-1,545,599,000","-2,006,592,000","-2,112,755,000","-2,224,862,000","-1,902,596,000","-1,705,156,000","-1,921,864,000","-1,737,283,000","-1,696,324,000","-1,550,881,000","-1,740,415,000","-2,464,413,000","-1,599,407,000","-1,644,655,000","-1,354,794,000","-1,090,685,000","-1,427,541,000","-1,071,205,000","-1,475,592,000","-1,240,885,000","-1,121,107,000","-785,026,000","-921,375,000","-697,459,000","-887,149,000","-1,328,539,000","-1,496,664,000","-1,185,976,000","-800,733,000","-997,868,000","-887,404,000","-845,498,000","-864,997,000","-861,635,000","-762,180,000","-589,067,000","-586,307,000","-487,051,000","-435,956,000","-386,761,000","-344,008,000","-524,531,000","-353,916,000","-300,216,000","-224,562,000","-638,439,000","-237,168,000","-182,403,000","-132,893,000","-165,004,000","-193,893,000","-176,469,000","-170,672,000","-211,949,000","-339,426,000","-246,585,000","-168,024,000","-153,628,000","-243,208,000","-121,741,000","-57,872,000","-14,000,000","-115,200,000","-128,000,000","-51,700,000","-48,300,000","-309,500,000","-156,500,000","-114,200,000","-140,300,000","-151,300,000","-163,900,000","-133,200,000","-155,200,000","-142,700,000","-112,000,000","-65,400,000","-98,300,000","-136,400,000","-40,900,000","-67,400,000","-80,100,000","-86,200,000","-96,800,000","-88,500,000","-76,500,000","-95,900,000","-77,500,000","-91,400,000","158,900,000","-71,800,000","-41,600,000","-47,700,000","-38,000,000","-52,000,000","-46,000,000","-52,900,000","-83,000,000","-28,300,000","-74,300,000","-66,600,000"
			PurchaseOfPPE,"-3,942,000,000","-1,009,000,000","-1,014,000,000","-896,000,000","-1,023,000,000","-917,000,000","-841,162,000","-486,139,000","-448,573,000","-1,688,826,000","-1,368,294,000","-1,490,854,000","-1,562,942,000","-2,000,436,000","-1,302,159,000","-1,649,172,000","-1,683,933,000","-1,441,211,000","-1,056,696,000","-1,094,053,000","-1,026,930,000","-946,563,000","-740,905,000","-653,757,000","-614,942,000","-573,191,000","-842,803,000","-1,356,915,000","-1,267,846,000","-1,545,599,000","-2,006,592,000","-2,112,755,000","-2,224,862,000","-1,902,596,000","-1,705,156,000","-1,921,864,000","-1,737,283,000","-1,696,324,000","-1,550,881,000","-1,740,415,000","-2,014,303,000","-2,049,517,000","-1,783,165,000","-1,704,940,000","-1,775,059,000","-1,687,648,000","-1,617,427,000","-1,560,024,000","-1,279,058,000","-1,124,873,000","-994,511,000","-923,062,000","-697,840,000","-887,596,000","-1,342,429,000","-1,511,920,000","-1,193,498,000","-1,147,624,000","-1,037,191,000","-893,388,000","-880,547,000","-867,936,000","-866,021,000","-763,282,000","-600,879,000","-589,048,000","-501,048,000","-461,368,000","-398,587,000","-363,760,000","-525,219,000","-356,925,000","-304,024,000","-230,516,000","-639,558,000","-239,779,000","-184,833,000","-140,213,000","-173,093,000","-189,273,000","-179,317,000","-172,444,000","-219,981,000","-334,109,000","-250,483,000","-169,443,000","-179,817,000","-243,208,000","-101,120,000","-78,493,000","-107,900,000","-115,200,000","-88,200,000","-91,500,000","-110,200,000","-309,500,000","-153,200,000","-117,500,000","-177,800,000","-151,300,000","-160,900,000","-136,200,000","-219,200,000","-142,700,000","-107,100,000","-70,300,000","-99,600,000","-139,400,000","-112,100,000","-93,900,000","-88,400,000","-168,400,000","-96,800,000","-88,500,000","-118,300,000","-95,400,000","-78,000,000","-91,400,000","-168,400,000","-92,900,000","-53,400,000","-47,700,000","-41,500,000","-69,700,000","-46,500,000","-54,000,000","-87,200,000","-61,900,000","-93,200,000","-66,600,000"
			SaleOfPPE,,,,,,,,,,,,,,,,,,,,,,,,,,,,,,,,,,,,,,,,,,"450,110,000","138,510,000","350,146,000","684,374,000","260,107,000","546,222,000","84,432,000","38,173,000","3,766,000","209,485,000","1,687,000","381,000","447,000","13,890,000","15,256,000","7,522,000","346,891,000","39,323,000","5,984,000","35,049,000","2,939,000","4,386,000","1,102,000","11,812,000","2,741,000","13,997,000","25,412,000","11,826,000","19,752,000","688,000","3,009,000","3,808,000","5,954,000","1,119,000","2,611,000","2,430,000","7,320,000",,,"2,848,000","1,772,000",,,"3,898,000","1,419,000",,,,"20,621,000",,,,"39,800,000",,,,"3,300,000",,,,"3,000,000",,,,"4,900,000","1,300,000","3,000,000","71,200,000","26,500,000","8,300,000",,,,,,,,"327,300,000","21,100,000",,,"3,500,000","17,700,000","500,000","1,100,000","4,200,000","33,600,000",,
		NetInvestmentPurchaseAndSale,,,,,,,,,,,,,,,,,,,,,,,,,,,,,,,,,,,,,,,,,,,,,,"-206,000",,,,,,,,,,,,,,,,,,,,,,,,,,,,,,,,,,,,,,,,,,,,,,,,,,,,,,,,,,,,,,,,"7,200,000",,,,,,,,,,,,"-1,100,000",,,"-400,000","4,000,000",,"1,100,000","-2,400,000","7,000,000"
			PurchaseOfInvestment,,,,,,,,,,,,,,,,,,,,,,,,,,,,,,,,,,,,,,,,,,,,,,,,,,,,,,,,,,,,,,,,,,,,,,,,,,,,,,,,,,,,,,,,,,,,,,,,,,,,,,,,,,,,,,,,,,,,,,,,,,"-1,100,000",,,,,,,,
			SaleOfInvestment,,,,,,,,,,,,,,,,,,,,,,,,,,,,,,,,,,,,,,,,,,,,,,,,,,,,,,,,,,,,,,,,,,,,,,,,,,,,,,,,,,,,,,,,,,,,,,,,,,,,,,,,,,,,,,"7,200,000",,,,,,,,,,,,,,,"-400,000","4,000,000",,"1,100,000","-2,400,000","7,000,000"
		NetOtherInvestingChanges,"388,000,000","53,000,000","177,000,000","-37,000,000","195,000,000","96,000,000","204,314,000","151,666,000","-396,669,000","157,883,000","171,267,000","34,388,000","-69,732,000","109,430,000","10,265,000","-139,478,000","50,742,000","-15,216,000","-175,229,000","57,664,000","144,262,000","110,136,000","697,038,000","271,273,000","302,567,000","4,439,000","67,945,000","-321,301,000","204,886,000","-258,623,000","624,144,000","94,202,000","-64,142,000","79,036,000","153,721,000","45,151,000","10,392,000","536,585,000","109,957,000","-83,367,000","985,176,000","224,087,000","-103,755,000","-56,660,000",,,"3,675,000","216,497,000","-85,586,000","81,429,000","140,057,000","22,339,000","-29,739,000","-137,978,000","-138,789,000","3,964,000","-13,796,000","-5,985,000","134,665,000","17,030,000","-18,488,000","6,786,000","43,236,000","50,094,000","-32,549,000","28,035,000","-12,918,000","24,647,000","-2,996,000","-33,065,000","120,944,000","-10,817,000","-44,863,000","-58,947,000","46,877,000","-82,989,000","-6,787,000","-34,708,000","-49,377,000","-20,353,000","-26,535,000","-70,235,000","-72,336,000","14,983,000","-30,709,000","-34,009,000","-65,021,000","5,397,000","-6,801,000","-24,287,000","-107,300,000","13,700,000","73,000,000","-33,900,000","-100,100,000","-21,400,000","39,100,000","-48,700,000","-58,600,000","-400,000","-28,000,000","-21,400,000","-75,600,000","8,300,000","64,300,000","-33,300,000","-11,400,000","15,600,000","-28,300,000","-24,200,000","-89,600,000","-19,300,000","-8,200,000","-26,100,000","-66,600,000","-3,000,000","-38,000,000","-63,700,000","-319,800,000","335,000,000","-16,600,000","2,500,000","-44,900,000","15,400,000","-11,000,000","-1,200,000",,,"-1,300,000","4,100,000"
FinancingCashFlow,"-3,577,000,000","-1,072,000,000","-1,414,000,000","-850,000,000","-241,000,000","-988,000,000","-219,484,000","-231,770,000","267,497,000","-175,268,000","-165,136,000","-182,469,000","-1,029,135,000","-136,581,000","-476,573,000","-134,717,000","-113,850,000","-113,963,000","-102,257,000","-725,149,000","-93,707,000","-114,598,000","-270,886,000","-108,083,000","-89,817,000","226,064,000","140,218,000","-76,370,000","-585,499,000","892,572,000","-83,671,000","-69,865,000","-84,184,000","-90,014,000","-446,654,000","-49,229,000","-39,321,000","-38,722,000","-21,084,000","1,217,582,000","-29,862,000","-26,885,000","-261,413,000","-44,851,000","-35,008,000","1,349,811,000","1,421,692,000","-10,291,000","928,107,000","-36,089,000","11,497,000","-22,771,000","669,957,000","175,479,000","-99,427,000","742,251,000","-34,826,000","37,107,000","-129,789,000","386,465,000","53,549,000","83,498,000","-155,292,000","-55,098,000","-37,940,000","-50,552,000","-60,860,000","-55,185,000","-3,775,000","47,510,000","-28,976,000","-14,102,000","22,345,000","-22,505,000","105,667,000","-7,561,000","-33,326,000","-121,976,000","10,908,000","23,882,000","54,160,000","122,354,000","131,468,000","34,843,000","-26,846,000","-266,477,000","-133,013,000","-41,906,000","-45,852,000","-84,162,000","-36,400,000","-14,300,000","-32,800,000","23,300,000","60,800,000","201,600,000","43,900,000","46,700,000","19,800,000","35,600,000","97,300,000","15,200,000","148,300,000","5,700,000","-37,800,000","14,900,000","18,100,000","49,300,000","8,400,000","-2,600,000","-3,900,000","-7,200,000","17,900,000","-35,200,000","24,700,000","-7,000,000","-6,600,000","-7,700,000","-4,500,000","-164,100,000","3,800,000","-11,700,000","18,900,000","-16,700,000","-4,400,000","-8,900,000","5,500,000","-11,200,000","20,000,000","-12,400,000"
	CashFlowFromContinuingFinancingActivities,"-3,577,000,000","-1,072,000,000","-1,414,000,000","-850,000,000","-241,000,000","-988,000,000","-219,484,000","-231,770,000","267,497,000","-175,268,000","-165,136,000","-182,469,000","-1,029,135,000","-136,581,000","-476,573,000","-134,717,000","-113,850,000","-113,963,000","-102,257,000","-725,149,000","-93,707,000","-114,598,000","-270,886,000","-108,083,000","-89,817,000","226,064,000","140,218,000","-76,370,000","-585,499,000","892,572,000","-83,671,000","-69,865,000","-84,184,000","-90,014,000","-446,654,000","-49,229,000","-39,321,000","-38,722,000","-21,084,000","1,217,582,000","-29,862,000","-26,885,000","-261,413,000","-44,851,000","-35,008,000","1,349,811,000","1,421,692,000","-10,291,000","928,107,000","-36,089,000","11,497,000","-22,771,000","669,957,000","175,479,000","-99,427,000","742,251,000","-34,826,000","37,107,000","-129,789,000","386,465,000","53,549,000","83,498,000","-155,292,000","-55,098,000","-37,940,000","-50,552,000","-60,860,000","-55,185,000","-3,775,000","47,510,000","-28,976,000","-14,102,000","22,345,000","-22,505,000","105,667,000","-7,561,000","-33,326,000","-121,976,000","10,908,000","23,882,000","54,160,000","122,354,000","131,468,000","34,843,000","-26,846,000","-266,477,000","-133,013,000","-41,906,000","-45,852,000","-84,162,000","-36,400,000","-14,300,000","-32,800,000","23,300,000","60,800,000","201,600,000","43,900,000","46,700,000","19,800,000","35,600,000","97,300,000","15,200,000","148,300,000","5,700,000","-37,800,000","14,900,000","18,100,000","49,300,000","8,400,000","-2,600,000","-3,900,000","-7,200,000","17,900,000","-35,200,000","24,700,000","-7,000,000","-6,600,000","-7,700,000","-4,500,000","-164,100,000","3,800,000","-11,700,000","18,900,000","-16,700,000","-4,400,000","-8,900,000","5,500,000","-11,200,000","20,000,000","-12,400,000"
		NetIssuancePaymentsOfDebt,"-38,000,000","-10,000,000","-10,000,000","-9,000,000","-9,000,000","-759,000,000","-6,135,000","-4,864,000","479,028,000","-3,621,000","-3,261,000","-3,235,000","-903,213,000","-3,190,000","-353,167,000","-1,698,000","-1,683,000","-1,671,000","-1,658,000","-601,646,000","-1,632,000","-1,619,000","-165,436,000","-1,596,000","-1,581,000","329,810,000","228,461,000","28,154,000","-501,532,000","988,704,000","-1,509,000","-1,499,000","-1,484,000","-5,254,000","-401,462,000","-1,452,000","-1,439,000","-1,427,000","-1,417,000",,,,"-220,000,000","0",,,"1,445,264,000","34,894,000","953,201,000","0","0","0","691,900,000","208,100,000","0","750,000,000",,,"-98,442,000","399,600,000","63,800,000","86,600,000","-96,075,000","-63,000,000","-40,225,000","-52,325,000","-57,705,000","-74,325,000","-2,700,000","42,175,000","14,650,000","-22,850,000","0","-23,050,000","98,050,000","0","-33,386,000","-100,924,000","54,264,000","55,025,000","60,181,000","119,693,000","153,823,000","60,200,000","-4,049,000","-214,129,000","-86,167,000","-4,383,000","8,630,000","-49,386,000","-174,900,000","25,300,000","-30,600,000","27,700,000","82,300,000","209,600,000","51,700,000","57,900,000","62,700,000","47,800,000","116,000,000","52,600,000","166,000,000","12,600,000","-29,300,000","29,800,000","25,800,000","50,300,000","20,200,000","4,100,000","6,700,000","0","23,000,000","-30,000,000",,,,,"-9,900,000","-266,900,000","8,500,000","-4,100,000","25,900,000","-17,100,000","500,000","-5,300,000","9,600,000","-8,300,000","23,200,000","-7,300,000"
			NetLongTermDebtIssuance,"-38,000,000","-10,000,000","-10,000,000","-9,000,000","-9,000,000","-759,000,000","-6,135,000","-4,864,000","479,028,000","-3,621,000","-3,261,000","-3,235,000","-903,213,000","-3,190,000","-353,167,000","-1,698,000","-1,683,000","-1,671,000","-1,658,000","-601,646,000","-1,632,000","-1,619,000","-165,436,000","-1,596,000","-1,581,000","329,810,000","228,461,000","28,154,000","-501,532,000","988,704,000","-1,509,000","-1,499,000","-1,484,000","-5,254,000","-401,462,000","-1,452,000","-1,439,000","-1,427,000","-1,417,000",,,,"-220,000,000","0",,,"1,478,964,000","1,194,000","953,201,000","0","0","0","691,900,000","208,100,000",,,,,,,,,,,,,,,,,,,,,,,,,,,,,,,,,,,,,,,,,,,,,,,,,,,,,,,,,,,,,,,,,,,,,,,,,,,,
				LongTermDebtIssuance,,,"0","0",,,"0","0",,,,,,,,,,,"0","0","0","0","0","-259,718,000","0","991,097,000","230,018,000","29,700,000","0","990,225,000","0","0","0","496,220,000","0",,,,"0",,,,"0","0",,,"1,487,264,000","0","991,395,000","0","0","0","691,900,000","208,100,000",,,,,,,,,,,,,,,,,,,,,,,,,,,,,,,,,,,,,,,,,,,,,,,,,,,,,,,,,,,,,,,,,,,,,,,,,,,,
				LongTermDebtPayments,"-38,000,000","-10,000,000","-10,000,000","-9,000,000","-9,000,000","-759,000,000","-6,135,000","-4,864,000","-1,004,824,000","-3,621,000","-3,261,000","-3,235,000","-903,213,000","-3,190,000","-353,167,000","-1,698,000","-1,683,000","-1,671,000","-1,658,000","-601,646,000","-1,632,000","-1,619,000","-165,436,000","258,122,000","-1,581,000","-661,287,000","-1,557,000","-1,546,000","-501,532,000","-1,521,000","-1,509,000","-1,499,000","-1,484,000","-501,474,000","-401,462,000","-1,452,000","-1,439,000","-1,427,000","-1,417,000",,,,"-220,000,000","0",,,"-8,300,000","1,194,000",,,"0","0",,,,,,,,,,,,,,,,,,,,,,,,,,,,,,,,,,,,,,,,,,,,,,,,,,,,,,,,,,,,,,,,,,,,,,,,,,,,,,
		NetCommonStockIssuance,"-74,000,000","-43,000,000","-8,000,000","-21,000,000","-2,000,000","-10,000,000","-1,309,000","-9,764,000","-402,000","-4,655,000","-2,914,000","-13,835,000","-2,155,000","-6,248,000","-4,898,000","-26,535,000","-15,247,000","-16,776,000","-13,034,000","-28,696,000","-3,050,000","-18,628,000","-26,484,000","-26,886,000","-16,083,000","-12,672,000","-5,372,000","-17,057,000","-10,903,000","-15,459,000","-12,600,000","-25,300,000","-60,627,000","-28,897,000","-8,222,000","-34,468,000","-10,070,000","-11,024,000","-13,793,000","-22,136,000","-2,591,000","-20,072,000","-2,570,000","-4,621,000","-1,696,000","1,373,230,000","-997,000","-2,991,000","-1,960,000","-5,347,000","-1,098,000","-3,763,000","-1,221,000","-4,904,000","-1,410,000","9,109,000","17,502,000","24,142,000","-17,983,000","8,017,000","8,813,000","5,276,000","-43,450,000","18,141,000","5,014,000","6,129,000","8,231,000","32,065,000","10,108,000","14,264,000","-34,969,000","17,289,000","34,415,000","8,775,000","17,421,000","2,987,000","7,274,000","-13,839,000","-35,242,000","-23,530,000","3,113,000","9,960,000","-13,587,000","-18,307,000","-18,467,000","-45,603,000","-40,549,000","-27,536,000","-48,388,000","-29,160,000","723,900,000","10,900,000","2,700,000","200,000","0","-17,200,000","600,000","-6,400,000","-40,500,000","-6,000,000","-14,800,000","-32,900,000","-3,100,000","-4,400,000","-4,000,000","-9,800,000","-700,000","-3,400,000","-1,600,000","-1,900,000","-6,900,000","-2,400,000",,,,,"-1,800,000","-2,900,000","0",,,,,,,,,,,
			CommonStockIssuance,,,,,,,,,,,,,,,,,,,,,,,,,,,,,,,,,,,,,,,"0","0","0","0","-5,000","0","59,000","1,388,211,000",,,,,,,,,"5,158,000","18,905,000","18,972,000","29,537,000","22,573,000","18,658,000","8,813,000","5,276,000","6,749,000","18,141,000","5,014,000","6,129,000","8,231,000","32,065,000","10,108,000","14,264,000","15,031,000","17,289,000","34,415,000","8,775,000","17,421,000","2,987,000","7,274,000","7,456,000","3,508,000","758,000","3,113,000","9,960,000","10,174,000","4,576,000","6,068,000","9,987,000","35,307,000","34,983,000","55,707,000","1,093,000","726,000,000","10,900,000","2,700,000","200,000","600,000","100,000","1,400,000","800,000","400,000","3,200,000","300,000","1,200,000","7,400,000","4,100,000","3,500,000","7,200,000","4,000,000","3,100,000","1,400,000","1,800,000","2,400,000","200,000",,,,,"1,600,000","3,400,000","0",,,,,,,,,,,
			CommonStockPayments,"-74,000,000","-43,000,000","-8,000,000","-21,000,000","-2,000,000","-10,000,000","-1,309,000","-9,764,000","-402,000","-4,655,000","-2,914,000","-13,835,000","-2,155,000","-6,248,000","-4,898,000","-26,535,000","-15,247,000","-16,776,000","-13,034,000","-28,696,000","-3,050,000","-18,628,000","-26,484,000","-26,886,000","-16,083,000","-12,672,000","-5,372,000","-17,057,000","-10,903,000","-15,459,000","-12,600,000","-25,300,000","-60,627,000","-28,897,000","-8,222,000","-34,468,000","-10,070,000","-11,024,000","-13,793,000","-22,136,000","-2,591,000","-20,072,000","-2,565,000","-4,621,000","-1,755,000","-14,981,000","-997,000","-2,991,000","-1,960,000","-5,347,000","-1,098,000","-3,763,000","-1,221,000","-4,904,000","-6,568,000","-9,796,000","-1,470,000","-5,395,000","-40,556,000",,,,,,,,,,,,,,,,"0","0","0","-21,295,000","-38,750,000",,,,"-23,761,000","-22,883,000","-24,535,000","-55,590,000","-75,856,000","-62,519,000","-104,095,000","-30,253,000",,,,,"-600,000","-17,300,000","-800,000","-7,200,000","-40,900,000","-9,200,000","-15,100,000","-34,100,000","-10,500,000","-8,500,000","-7,500,000","-17,000,000","-4,700,000","-6,500,000","-3,000,000","-3,700,000","-9,300,000","-2,600,000",,,,,"-3,400,000","-6,300,000",,,,,,,,,,,,
		NetPreferredStockIssuance,,,,,,,,,,,,,,,,,,,,,,,,,,,,,,,,,,,,,,,,,,,,,,,,,,,"0","0","0","0",,,,,,,,,,,,,,,,,,,,,,,,,,,,,,,,,,,,,,,,,,,,,,,,,,,,,,,,,,,,,,,,,,,,,,,,,,,,
			PreferredStockPayments,,,,,,,,,,,,,,,,,,,,,,,,,,,,,,,,,,,,,,,,,,,,,,,,,,,"0","0","0","0",,,,,,,,,,,,,,,,,,,,,,,,,,,,,,,,,,,,,,,,,,,,,,,,,,,,,,,,,,,,,,,,,,,,,,,,,,,,
		CashDividendsPaid,"-3,488,000,000","-1,023,000,000","-1,406,000,000","-820,000,000","-239,000,000","-219,000,000","-219,581,000","-217,142,000","-217,042,000","-167,058,000","-167,349,000","-166,170,000","-127,135,000","-127,546,000","-126,970,000","-107,465,000","-106,584,000","-97,026,000","-97,270,000","-96,277,000","-96,277,000","-96,707,000","-96,119,000","-92,690,000","-91,866,000","-92,170,000","-92,428,000","-91,447,000","-91,469,000","-91,661,000","-92,025,000","-67,986,000","-67,904,000","-51,780,000","-51,447,000","-50,725,000","-50,786,000","-46,220,000","-46,668,000","-45,520,000","-45,642,000","-43,250,000","-43,036,000","-42,571,000","-42,559,000","-39,003,000","-38,963,000","-39,098,000","-38,890,000","-36,289,000","-36,271,000","-36,473,000","-36,025,000","-33,491,000","-33,751,000","-29,806,000","-29,558,000","-22,089,000","-22,767,000","-22,883,000","-22,848,000","-15,522,000","-16,428,000","-16,303,000","-16,280,000","-11,432,000","-11,411,000","-11,355,000","-11,340,000","-8,880,000","-9,767,000","-9,729,000","-9,638,000","-8,461,000","-8,416,000","-8,398,000","-7,239,000","-7,241,000","-7,274,000","-7,301,000","-7,295,000","-7,282,000","-7,274,000","-7,300,000","-7,305,000","-6,701,000","-6,808,000","-6,746,000","-6,187,000","-6,330,000","-3,600,000","-4,600,000","-4,600,000","-4,600,000",,,"-4,700,000","-4,600,000","-4,700,000","-4,700,000","-4,700,000","-4,800,000","-4,800,000","-4,800,000","-4,800,000","-4,800,000","-4,800,000","-4,800,000","-4,800,000","-4,800,000","-4,800,000","-4,800,000","-4,800,000","-4,800,000","-4,800,000","-4,800,000","-4,800,000","-4,800,000","-4,000,000","-3,800,000","-3,800,000","-3,800,000","-3,800,000","-3,800,000","-3,800,000","-3,800,000","-3,800,000","-3,800,000","-3,800,000","-3,800,000"
			CommonStockDividendPaid,,,,,,,"-219,581,000","-217,142,000","-217,042,000","-167,058,000","-167,349,000","-166,170,000","-127,135,000","-127,546,000","-126,970,000","-107,465,000","-106,584,000","-97,026,000","-97,270,000","-96,277,000","-96,277,000","-96,707,000","-96,119,000","-92,690,000","-91,866,000","-92,170,000","-92,428,000","-91,447,000","-91,469,000","-91,661,000","-92,025,000","-67,986,000","-67,904,000","-51,780,000","-51,447,000","-50,725,000","-50,786,000","-46,220,000",,,,,,,,,,,,,,,,,,,,,,,,,,,,,,,,,,,,,,,,,,,,,,,,,,,,,,,,,,,,,,,,,,,,,,,,,,,,,,,,,,,,,,,,,,,,
		ProceedsFromStockOptionExercised,"23,000,000","4,000,000","10,000,000","0",,,"7,555,000","0","8,548,000","66,000","8,388,000","863,000","8,292,000","403,000","8,462,000","953,000","9,692,000","1,453,000","9,666,000","1,566,000","7,252,000","2,356,000","9,013,000","3,659,000","7,936,000","2,688,000","7,723,000","483,000","10,500,000","3,984,000","10,509,000","1,307,000","9,448,000","985,000","8,650,000","9,307,000","12,769,000","8,004,000","23,173,000","26,728,000","12,788,000","20,198,000","9,026,000","2,268,000","7,256,000","17,363,000","10,033,000","3,504,000","15,746,000","5,277,000","6,774,000","5,665,000","6,874,000","1,152,000",,,,,,,,,,,,,,,,,,,,,,,,,,,,,,,,,,,,,,,,,,,,,,,,,,,,,,,,,,,,,,,,,,,,,,,,,,,,
		NetOtherFinancingCharges,,,,,,,"-14,000","0",,,"0","-92,000",,,"0","28,000","-28,000","57,000","39,000","-1,742,000",,,"8,140,000","9,430,000","11,777,000","-1,592,000","1,834,000","3,497,000","7,905,000","7,004,000","11,954,000","23,613,000","36,383,000","-5,068,000","5,827,000","28,109,000","10,205,000","11,945,000","17,621,000","25,779,000","5,583,000","16,239,000","-4,833,000","73,000","1,991,000","-1,779,000","6,355,000","-6,600,000","10,000","270,000","42,092,000","11,800,000","8,429,000","4,622,000","-64,266,000","12,948,000","15,230,000","35,054,000","9,403,000","1,731,000","3,784,000","7,144,000","661,000","6,064,000","13,551,000","7,076,000","25,000","-1,570,000","157,000","-49,000","1,110,000","1,188,000","-2,432,000","231,000","-1,388,000","-2,150,000","25,000","28,000","-840,000","-312,000","-1,839,000","-17,000","-1,494,000","250,000","2,975,000","-44,000","511,000","-3,241,000","93,000","714,000","-581,800,000","-45,900,000",,,"-3,000,000","-100,000","-3,700,000","-200,000","2,300,000","-1,500,000","800,000","300,000","-9,800,000","2,300,000",,"-300,000","-2,200,000","7,200,000",,,,,,"-400,000","4,100,000",,,"0","9,400,000","-5,300,000","-900,000","-3,800,000","-3,200,000","4,200,000","-1,100,000","200,000","-300,000","900,000","600,000","-1,300,000"
EndCashPosition,"4,006,000,000","4,009,000,000","5,209,000,000","4,293,000,000","3,880,000,000","3,388,000,000","3,328,928,000","3,065,556,000","2,416,501,000","2,906,852,000","2,027,972,000","1,583,105,000","1,160,485,000","1,135,810,000","1,555,634,000","1,274,132,000","1,008,215,000","816,094,000","834,228,000","846,138,000","1,649,443,000","1,546,566,000","1,599,895,000","1,048,727,000","779,722,000","668,481,000","718,506,000","742,689,000","1,367,395,000","2,127,419,000","2,087,213,000","1,481,145,000","1,230,140,000","1,667,212,000","1,318,209,000","1,318,817,000","1,228,016,000","1,108,034,000","876,435,000","1,112,623,000","280,374,000","294,064,000","615,726,000","1,386,728,000","1,577,438,000","1,668,285,000","788,853,000","27,832,000","650,114,000","230,084,000","685,751,000","608,511,000","706,964,000","85,214,000","331,311,000","885,977,000","108,101,000","204,938,000","54,231,000","301,944,000","58,534,000","141,700,000","218,255,000","595,931,000","759,108,000","821,327,000","643,811,000","341,061,000","282,701,000","173,385,000","20,980,000","81,908,000","67,839,000","95,717,000","4,443,000","184,489,000","150,967,000","6,833,000","9,848,000","7,782,000","9,206,000","5,403,000","2,512,000","11,344,000","68,294,000","30,849,000","20,152,000","16,707,000","11,714,000","33,358,000","24,800,000","18,800,000","11,400,000","0","0","0","0","0","0","0","0","0","0","0","0","0","0","0","0","0","0","0","0","0","0","0","0","0","0","0","0","0","0","0","0","0","0","0","0","0"
	ChangesInCash,"618,000,000","-1,200,000,000","915,000,000","413,000,000","490,000,000","61,000,000","264,906,000","647,310,000","-489,671,000","878,707,000","445,041,000","422,729,000","24,734,000","-419,818,000","316,761,000","266,230,000","194,576,000","-18,224,000","-6,634,000","-800,175,000","102,001,000","-52,976,000","544,526,000","269,014,000","100,954,000","-51,097,000","-18,827,000","-623,154,000","-761,086,000","48,897,000","644,319,000","248,051,000","-438,613,000","354,099,000","3,141,000","86,530,000","124,565,000","226,474,000","-234,821,000","830,172,000","-13,486,000","-324,600,000","-772,936,000","-184,022,000","-90,587,000","879,552,000","767,037,000","-620,692,000","418,382,000","-455,480,000","77,070,000","-105,349,000","614,138,000","-243,809,000","-533,192,000","786,616,000","-93,554,000","151,966,000","-245,575,000","240,351,000","-87,229,000","-76,233,000","-374,686,000","-164,068,000","-69,891,000","177,943,000","304,385,000","52,313,000","110,034,000","152,276,000","-73,264,000","14,069,000","-27,878,000","91,274,000","-180,046,000","33,522,000","144,134,000","-3,015,000","2,066,000","-1,424,000","3,803,000","2,891,000","-8,832,000","-56,950,000","37,445,000","10,697,000","3,445,000","4,993,000","-21,644,000","8,522,000","5,900,000","7,600,000","-1,800,000","6,800,000",,"-4,300,000","8,500,000","-4,300,000","3,300,000","-10,400,000","12,900,000","-4,100,000","-2,000,000","-28,400,000","11,500,000","3,500,000","14,600,000","-11,900,000","5,000,000","9,600,000","-81,000,000","1,100,000","28,600,000","-46,000,000","-13,700,000","74,600,000","2,300,000","-92,700,000","-49,900,000","170,900,000","-5,700,000","13,500,000","-1,700,000","2,100,000","-9,400,000","9,200,000","-31,700,000","26,500,000","-14,900,000","8,400,000"
	EffectOfExchangeRateChanges,"3,000,000","0","1,000,000","0","2,000,000","-2,000,000","-1,534,000","1,745,000","-680,000","173,000","-174,000","-109,000","-59,000","-6,000","-35,259,000","-313,000","-2,455,000","90,000","-5,276,000","-3,130,000","876,000","-353,000","6,642,000","-9,000","10,287,000","1,072,000","-5,356,000","-1,552,000","1,062,000","-8,691,000","-38,251,000","2,954,000","1,541,000","-5,096,000","-3,749,000","4,271,000","-4,583,000","5,125,000","-1,367,000","2,077,000","-204,000","2,938,000","1,934,000","-6,688,000","-260,000","-120,000","-6,016,000","-1,590,000","1,648,000","-187,000","170,000","6,896,000","7,612,000","-2,288,000","-21,474,000","-8,740,000","-3,283,000","-1,259,000","-2,138,000","3,059,000","4,063,000","-322,000","-2,990,000","891,000","7,672,000","-427,000","-1,635,000","6,047,000","-718,000","129,000",,,,,,,,,,,,,,,,,,,,,,,,,,,,,,,,,,,,,,,,,,,,,,,,,,,,,,,,,,,,
	BeginningCashPosition,"3,388,000,000","5,209,000,000","4,293,000,000","3,880,000,000","3,388,000,000","3,329,000,000","3,065,556,000","2,416,501,000","2,906,852,000","2,027,972,000","1,583,105,000","1,160,485,000","1,135,810,000","1,555,634,000","1,274,132,000","1,008,215,000","816,094,000","834,228,000","846,138,000","1,649,443,000","1,546,566,000","1,599,895,000","1,048,727,000","779,722,000","668,481,000","718,506,000","742,689,000","1,367,395,000","2,127,419,000","2,087,213,000","1,481,145,000","1,230,140,000","1,667,212,000","1,318,209,000","1,318,817,000","1,228,016,000","1,108,034,000","876,435,000","1,112,623,000","280,374,000","294,064,000","615,726,000","1,386,728,000","1,577,438,000","1,668,285,000","788,853,000","27,832,000","650,114,000","230,084,000","685,751,000","608,511,000","706,964,000","85,214,000","331,311,000","885,977,000","108,101,000","204,938,000","54,231,000","301,944,000","58,534,000","141,700,000","218,255,000","595,931,000","759,108,000","821,327,000","643,811,000","341,061,000","282,701,000","173,385,000","20,980,000","81,908,000","67,839,000","95,717,000","4,443,000","184,489,000","150,967,000","6,833,000","9,848,000","7,782,000","9,206,000","5,403,000","2,512,000","11,344,000","68,294,000","30,849,000","20,152,000","16,707,000","11,714,000","33,358,000","24,836,000","18,800,000","11,400,000","0","6,300,000","0","0","0","9,300,000","0","0","0","7,600,000","0","0","0","23,000,000","0","0","0","5,800,000","0","0","0","103,100,000","0","0","0","132,600,000","0","0","0","3,800,000","0","0","0","3,600,000","0","0","0","15,300,000"
	OtherCashAdjustmentOutsideChangeinCash,,,,,,,,,,,,,,,,,,,,,,,,,,,,,,,,,,,,,,,,,,,,,,,,,,,,,,,,,,,,,,,,,,,,,,,,,,,,,,,,,,,,,,,,,,,,"-200,000","13,200,000","-13,100,000","3,000,000","4,200,000","-8,500,000","-5,000,000","-3,300,000","10,400,000","-12,900,000","-3,500,000","2,000,000","28,400,000","-11,500,000","-26,500,000","-14,600,000","11,900,000","-5,000,000","-15,400,000","81,000,000","-1,100,000","-28,600,000","-57,100,000","13,700,000","-74,600,000","-2,300,000","-39,900,000","49,900,000","-170,900,000","5,700,000","-17,300,000","1,700,000","-2,100,000","9,400,000","-12,800,000","31,700,000","-26,500,000","14,900,000","-23,700,000"
IncomeTaxPaidSupplementalData,,,,,,,,,,,,,,,,,,"3,554,000","96,555,000","-5,766,000","16,197,000","81,960,000",,,,"0","-28,173,000","19,716,000","36,778,000","12,787,000","12,265,000","82,982,000","226,135,000","21,359,000","74,289,000","47,039,000","118,971,000","54,440,000",,,,,,,,,,,,,,,,,,,,,,,,,,,,,,,,,,,,,,,,,,,,,,,,,,,,,,,,,,,,,,,,,,,,,,,,,,,,,,,,,,,,,,,,,,,,
InterestPaidSupplementalData,,,,,,,,,,,,,,,,,,"50,103,000","72,985,000","65,587,000","58,905,000","77,828,000",,,"-170,309,000","52,189,000","69,498,000","50,476,000","45,990,000","56,124,000","53,768,000","41,304,000","48,764,000","53,547,000","63,046,000","51,008,000","67,242,000","54,558,000",,,,,,,,,,,,,,,,,,,,,,,,,,,,,,,,,,,,,,,,,,,,,,,,,,,,,,,,,,,,,,,,,,,,,,,,,,,,,,,,,,,,,,,,,,,,
CapitalExpenditure,"-3,942,000,000","-1,009,000,000","-1,014,000,000","-896,000,000","-1,023,000,000","-917,000,000","-841,162,000","-486,139,000","-448,573,000","-1,688,826,000","-1,368,294,000","-1,490,854,000","-1,562,942,000","-2,000,436,000","-1,302,159,000","-1,649,172,000","-1,683,933,000","-1,441,211,000","-1,056,696,000","-1,094,053,000","-1,026,930,000","-946,563,000","-740,905,000","-653,757,000","-614,942,000","-573,191,000","-842,803,000","-1,356,915,000","-1,267,846,000","-1,545,599,000","-2,006,592,000","-2,112,755,000","-2,224,862,000","-1,902,596,000","-1,705,156,000","-1,921,864,000","-1,737,283,000","-1,696,324,000","-1,550,881,000","-1,740,415,000","-2,014,303,000","-2,049,517,000","-1,783,165,000","-1,704,940,000","-1,775,059,000","-1,687,648,000","-1,617,427,000","-1,560,024,000","-1,279,058,000","-1,124,873,000","-994,511,000","-923,062,000","-697,840,000","-887,596,000","-1,342,429,000","-1,511,920,000","-1,193,498,000","-1,147,624,000","-1,037,191,000","-893,388,000","-880,547,000","-867,936,000","-866,021,000","-763,282,000","-600,879,000","-589,048,000","-501,048,000","-461,368,000","-398,587,000","-363,760,000","-525,219,000","-356,925,000","-304,024,000","-230,516,000","-639,558,000","-239,779,000","-184,833,000","-140,213,000","-173,093,000","-189,273,000","-179,317,000","-172,444,000","-219,981,000","-334,109,000","-250,483,000","-169,443,000","-179,817,000","-243,208,000","-101,120,000","-78,493,000","-107,900,000","-115,200,000","-88,200,000","-91,500,000","-110,200,000","-309,500,000","-153,200,000","-117,500,000","-177,800,000","-151,300,000","-160,900,000","-136,200,000","-219,200,000","-142,700,000","-107,100,000","-70,300,000","-99,600,000","-139,400,000","-112,100,000","-93,900,000","-88,400,000","-168,400,000","-96,800,000","-88,500,000","-118,300,000","-95,400,000","-78,000,000","-91,400,000","-168,400,000","-92,900,000","-53,400,000","-47,700,000","-41,500,000","-69,700,000","-46,500,000","-54,000,000","-87,200,000","-61,900,000","-93,200,000","-66,600,000"
IssuanceOfCapitalStock,,,,,,,,,,,,,,,,,,,,,,,,,,,,,,,,,,,,,,,"0","0","0","0","-5,000","0","59,000","1,388,211,000",,,,,,,,,"5,158,000","18,905,000","18,972,000","29,537,000","22,573,000","18,658,000","8,813,000","5,276,000","6,749,000","18,141,000","5,014,000","6,129,000","8,231,000","32,065,000","10,108,000","14,264,000","15,031,000","17,289,000","34,415,000","8,775,000","17,421,000","2,987,000","7,274,000","7,456,000","3,508,000","758,000","3,113,000","9,960,000","10,174,000","4,576,000","6,068,000","9,987,000","35,307,000","34,983,000","55,707,000","1,093,000","726,000,000","10,900,000","2,700,000","200,000","600,000","100,000","1,400,000","800,000","400,000","3,200,000","300,000","1,200,000","7,400,000","4,100,000","3,500,000","7,200,000","4,000,000","3,100,000","1,400,000","1,800,000","2,400,000","200,000",,,,,"1,600,000","3,400,000","0",,,,,,,,,,,
IssuanceOfDebt,,,"0","0",,,"0","0",,,,,,,,,,,"0","0","0","0","0","-259,718,000","0","991,097,000","230,018,000","29,700,000","0","990,225,000","0","0","0","496,220,000","0",,,,"0",,,,"0","0",,,"1,453,564,000","33,700,000","991,395,000","0","0","0","691,900,000","208,100,000",,,,,,,,,,,,,,,,,,,,,,,,,,,,,,,,,,,,,,,,,,,,,,,,,,,,,,,,,,,,,,,,,,,,,,,,,,,,
RepaymentOfDebt,"-38,000,000","-10,000,000","-10,000,000","-9,000,000","-9,000,000","-759,000,000","-6,135,000","-4,864,000","-1,004,824,000","-3,621,000","-3,261,000","-3,235,000","-903,213,000","-3,190,000","-353,167,000","-1,698,000","-1,683,000","-1,671,000","-1,658,000","-601,646,000","-1,632,000","-1,619,000","-165,436,000","258,122,000","-1,581,000","-661,287,000","-1,557,000","-1,546,000","-501,532,000","-1,521,000","-1,509,000","-1,499,000","-1,484,000","-501,474,000","-401,462,000","-1,452,000","-1,439,000","-1,427,000","-1,417,000",,,,"-220,000,000","0",,,"-8,300,000","1,194,000",,,"0","0",,,,,,,,,,,,,,,,,,,,,,,,,,,,,,,,,,,,,,,,,,,,,,,,,,,,,,,,,,,,,,,,,,,,,,,,,,,,,,
RepurchaseOfCapitalStock,"-74,000,000","-43,000,000","-8,000,000","-21,000,000","-2,000,000","-10,000,000","-1,309,000","-9,764,000","-402,000","-4,655,000","-2,914,000","-13,835,000","-2,155,000","-6,248,000","-4,898,000","-26,535,000","-15,247,000","-16,776,000","-13,034,000","-28,696,000","-3,050,000","-18,628,000","-26,484,000","-26,886,000","-16,083,000","-12,672,000","-5,372,000","-17,057,000","-10,903,000","-15,459,000","-12,600,000","-25,300,000","-60,627,000","-28,897,000","-8,222,000","-34,468,000","-10,070,000","-11,024,000","-13,793,000","-22,136,000","-2,591,000","-20,072,000","-2,565,000","-4,621,000","-1,755,000","-14,981,000","-997,000","-2,991,000","-1,960,000","-5,347,000","-1,098,000","-3,763,000","-1,221,000","-4,904,000","-6,568,000","-9,796,000","-1,470,000","-5,395,000","-40,556,000",,,,,,,,,,,,,,,,"0","0","0","-21,295,000","-38,750,000",,,,"-23,761,000","-22,883,000","-24,535,000","-55,590,000","-75,856,000","-62,519,000","-104,095,000","-30,253,000",,,,,"-600,000","-17,300,000","-800,000","-7,200,000","-40,900,000","-9,200,000","-15,100,000","-34,100,000","-10,500,000","-8,500,000","-7,500,000","-17,000,000","-4,700,000","-6,500,000","-3,000,000","-3,700,000","-9,300,000","-2,600,000",,,,,"-3,400,000","-6,300,000",,,,,,,,,,,,
FreeCashFlow,"3,807,000,000","-181,000,000","2,152,000,000","1,300,000,000","536,000,000","953,000,000","280,076,000","727,414,000","-360,499,000","896,092,000","438,910,000","570,810,000","1,123,601,000","-392,667,000","783,069,000","540,425,000","257,684,000","110,955,000","270,852,000","-132,690,000","51,446,000","-48,514,000","63,840,000","105,824,000","-111,796,000","-281,600,000","-226,990,000","-225,483,000","-380,473,000","-585,052,000","103,846,000","223,714,000","-290,287,000","365,077,000","296,074,000","90,608,000","153,494,000","-271,389,000","-323,694,000","-304,043,000","-518,690,000","-971,912,000","-546,278,000","-432,657,000","-663,307,000","-730,160,000","-994,552,000","-775,637,000","-598,005,000","-504,586,000","-165,748,000","-106,604,000","-26,461,000","-281,757,000","-308,866,000","25,145,000","-52,454,000","-226,047,000","-289,774,000","-169,128,000","-157,339,000","-169,456,000","-267,016,000","-160,166,000","-11,214,000","197,719,000","364,166,000","57,439,000","104,979,000","118,079,000","-165,920,000","35,979,000","-9,168,000","166,772,000","-333,709,000","121,461,000","181,817,000","146,349,000","32,446,000","-333,000","-26,670,000","-51,000,000","-75,996,000","-101,459,000","91,102,000","309,764,000","175,290,000","41,502,000","51,630,000","96,350,000","55,700,000","8,200,000","-2,200,000","-22,400,000","-25,600,000","-184,400,000","-71,200,000","-5,600,000","4,600,000","-45,600,000","-53,400,000","-900,000","-138,700,000","-42,400,000","-10,100,000","17,000,000","6,600,000","-79,800,000","-39,100,000","2,700,000","4,200,000","-54,600,000","18,900,000","15,300,000","-13,600,000","85,100,000","46,400,000","-21,300,000","-52,900,000","-21,100,000","-5,800,000","23,800,000","20,800,000","-10,700,000","5,900,000","14,200,000","-34,700,000","5,800,000","-50,100,000","9,700,000"
DomesticSales,,,,,,,,,,,,,,,,,,,,,,,,,,,,,,,,,,,"3,532,066,000",,,,,,,,,,,,,,,,,"849,338,000",,,,,,,,,,,,,,,,,,,,,,,,,,,,,,,,,,,,,,,,,,,,,,,,,,,,,,,,,,,,,,,,,,,,,,,,,,,,,,
ForeignSales,,,,,,,,,,,,,,,,,,,,,,,,,,,,,,,,,,,"216,957,000",,,,,,,,,,,,,,,,,"157,511,000",,,,,,,,,,,,,,,,,,,,,,,,,,,,,,,,,,,,,,,,,,,,,,,,,,,,,,,,,,,,,,,,,,,,,,,,,,,,,,