name,03/31/2022,12/31/2021,09/30/2021,06/30/2021,03/31/2021,12/31/2020,09/30/2020,06/30/2020,03/31/2020,12/31/2019,09/30/2019,06/30/2019,03/31/2019,12/31/2018,09/30/2018,06/30/2018,03/31/2018,12/31/2017,09/30/2017,06/30/2017,03/31/2017,12/31/2016,09/30/2016,06/30/2016,03/31/2016,12/31/2015,09/30/2015,06/30/2015,03/31/2015,12/31/2014,09/30/2014,06/30/2014,03/31/2014,12/31/2013,09/30/2013,06/30/2013,03/31/2013,12/31/2012,09/30/2012,06/30/2012,03/31/2012,12/31/2011,09/30/2011,06/30/2011,03/31/2011,12/31/2010,09/30/2010,06/30/2010,03/31/2010,12/31/2009,09/30/2009,06/30/2009,03/31/2009,12/31/2008,09/30/2008,06/30/2008,03/31/2008,12/31/2007,09/30/2007,06/30/2007,03/31/2007,12/31/2006,09/30/2006,06/30/2006,03/31/2006,12/31/2005,09/30/2005,06/30/2005,03/31/2005,12/31/2004,09/30/2004,06/30/2004,03/31/2004,12/31/2003,09/30/2003,06/30/2003,03/31/2003,12/31/2002,09/30/2002,06/30/2002,03/31/2002,12/31/2001,09/30/2001,06/30/2001,03/31/2001,12/31/2000,09/30/2000,06/30/2000,03/31/2000,12/31/1999,09/30/1999,06/30/1999,03/31/1999,12/31/1998,09/30/1998,06/30/1998,03/31/1998,12/31/1997,09/30/1997,06/30/1997,03/31/1997,12/31/1996,09/30/1996,06/30/1996,03/31/1996,12/31/1995,09/30/1995,06/30/1995,03/31/1995,12/31/1994,09/30/1994,06/30/1994,03/31/1994,12/31/1993,09/30/1993,06/30/1993,03/31/1993,12/31/1992,09/30/1992,06/30/1992,03/31/1992,12/31/1991,09/30/1991,06/30/1991,03/31/1991,12/31/1990,09/30/1990,06/30/1990,03/31/1990,12/31/1989
TotalAssets,"38,097,000,000","38,236,000,000","37,172,000,000","36,885,000,000","36,171,000,000","35,804,601,000","35,074,018,000","35,221,671,000","37,634,084,000","37,124,608,000","36,542,269,000","35,751,501,000","35,663,535,000","33,934,474,000","33,637,736,000","32,092,380,000","30,740,517,000","29,833,078,000","28,805,305,000","29,263,617,000","29,211,974,000","29,459,433,000","25,554,921,000","25,830,538,000","26,338,423,000","26,975,244,000","27,277,247,000","33,884,096,000","34,692,454,000","34,762,687,000","34,500,883,000","33,302,434,000","32,141,288,000","30,574,238,000","30,147,270,000","29,077,152,000","28,232,613,000","27,336,578,000","28,032,491,000","25,998,577,000","25,555,536,000","24,838,797,000","24,794,678,000","23,959,379,000","23,545,522,000","21,624,233,000","19,944,859,000","19,465,683,000","18,509,068,000","18,118,667,000","17,221,293,000","16,792,752,000","15,983,709,000","15,951,226,000","15,832,730,000","14,224,767,000","12,950,559,000","12,088,907,000","11,467,707,000","10,524,264,000","9,826,854,000","9,402,160,000","9,165,016,000","8,642,157,000","8,243,390,000","7,753,320,000","7,026,553,000","6,427,657,000","6,117,028,000","5,798,923,000","5,424,597,000","5,126,966,000","4,955,053,000","4,749,015,000","4,426,062,000","4,240,341,000","4,070,655,000","3,814,006,000","3,692,957,000","3,589,598,000","3,479,523,000","3,414,044,000","3,386,362,000","3,210,721,000","3,012,280,000","3,000,815,000","2,872,493,000","2,651,744,000","2,616,085,000","2,610,800,000","2,597,300,000","2,962,000,000","2,990,200,000","3,018,100,000","2,961,500,000","2,763,000,000","2,738,800,000","2,723,400,000","2,611,800,000","2,535,900,000","2,470,400,000","2,458,400,000","2,225,100,000","2,190,100,000","2,156,100,000","2,147,300,000","2,110,000,000","2,046,900,000","1,991,400,000","1,861,900,000","1,855,800,000","1,803,900,000","1,771,700,000","1,811,200,000","1,759,800,000","1,699,200,000","1,678,700,000","1,731,000,000","1,658,500,000","1,466,100,000","1,437,800,000","1,455,600,000","1,414,100,000","1,416,500,000","1,427,800,000","1,417,900,000","1,405,300,000","1,387,400,000","1,368,000,000","1,365,800,000"
	CurrentAssets,"8,479,000,000","8,584,000,000","7,349,000,000","6,935,000,000","6,191,000,000","5,862,168,000","5,095,057,000","4,597,391,000","6,491,049,000","5,273,339,000","4,819,731,000","4,495,521,000","4,907,885,000","5,057,390,000","4,817,092,000","4,231,852,000","3,585,097,000","3,279,108,000","2,763,963,000","3,383,373,000","3,394,076,000","3,554,603,000","2,737,764,000","2,450,121,000","2,365,812,000","2,592,244,000","2,824,958,000","3,737,718,000","4,793,368,000","5,416,021,000","4,884,716,000","4,724,745,000","4,822,476,000","4,072,015,000","4,191,967,000","4,240,840,000","4,081,018,000","3,589,884,000","4,000,162,000","2,948,058,000","3,042,033,000","3,253,938,000","3,735,362,000","3,637,950,000","3,597,603,000","2,527,446,000","1,534,445,000","1,916,143,000","1,545,857,000","1,839,541,000","1,831,689,000","2,210,276,000","1,809,739,000","2,108,451,000","2,476,517,000","2,088,097,000","1,690,246,000","1,292,039,000","1,310,225,000","1,063,768,000","1,128,106,000","1,350,080,000","1,583,001,000","1,598,710,000","1,664,758,000","1,563,238,000","1,144,012,000","866,505,000","732,066,000","586,803,000","557,679,000","550,424,000","503,844,000","396,014,000","557,976,000","552,781,000","495,212,000","394,792,000","313,379,000","275,988,000","266,218,000","272,421,000","336,192,000","384,577,000","358,915,000","394,427,000","331,139,000","265,749,000","237,092,000","200,500,000","202,400,000","225,300,000","227,700,000","246,400,000","235,300,000","245,100,000","283,900,000","282,000,000","277,100,000","270,000,000","273,900,000","325,900,000","231,600,000","267,600,000","229,600,000","217,800,000","191,500,000","198,700,000","188,000,000","156,400,000","207,200,000","216,300,000","197,500,000","249,400,000","237,600,000","171,900,000","163,900,000","247,000,000","282,700,000","108,300,000","96,700,000","109,700,000","82,600,000","90,500,000","115,200,000","111,000,000","113,600,000","88,800,000","102,200,000","112,300,000"
		CashCashEquivalentsAndShortTermInvestments,"4,009,000,000","5,209,000,000","4,293,000,000","3,880,000,000","3,388,000,000","3,328,928,000","3,065,556,000","2,416,501,000","2,906,852,000","2,027,972,000","1,583,105,000","1,160,485,000","1,135,810,000","1,555,634,000","1,274,132,000","1,008,215,000","816,094,000","834,228,000","846,138,000","1,649,443,000","1,546,566,000","1,599,895,000","1,048,727,000","779,722,000","668,481,000","718,506,000","742,689,000","1,367,395,000","2,127,419,000","2,087,213,000","1,481,145,000","1,230,140,000","1,667,212,000","1,318,209,000","1,318,817,000","1,228,016,000","1,108,034,000","876,435,000","1,112,623,000","280,374,000","294,064,000","615,726,000","1,386,728,000","1,577,438,000","1,668,285,000","788,853,000","27,832,000","650,114,000","230,084,000","685,751,000","608,511,000","706,964,000","85,214,000","331,311,000","885,977,000","108,101,000","204,938,000","54,231,000","301,944,000","58,534,000","141,700,000","218,255,000","595,931,000","759,108,000","821,327,000","643,811,000","341,061,000","282,701,000","173,385,000","20,980,000","81,908,000","67,839,000","95,717,000","4,443,000","184,489,000","150,967,000","6,833,000","9,848,000","7,782,000","9,206,000","5,403,000","2,512,000","11,344,000","68,294,000","30,849,000","20,152,000","16,707,000","11,714,000","33,358,000","24,800,000","18,800,000","11,400,000","13,100,000","6,300,000","9,200,000","13,600,000","5,100,000","9,300,000","6,100,000","16,500,000","3,600,000","7,600,000","9,700,000","38,100,000","26,500,000","23,000,000","8,500,000","20,400,000","15,300,000","5,800,000","86,800,000","85,700,000","57,200,000","103,100,000","116,800,000","42,100,000","39,900,000","132,600,000","182,500,000","11,600,000","17,300,000","3,800,000","5,400,000","3,400,000","12,800,000","3,600,000","35,300,000","8,800,000","23,800,000","15,300,000"
			CashAndCashEquivalents,"4,009,000,000","5,209,000,000","4,293,000,000","3,880,000,000","3,388,000,000","3,328,928,000","3,065,556,000","2,416,501,000","2,906,852,000","2,027,972,000","1,583,105,000","1,160,485,000","1,135,810,000","1,555,634,000","1,274,132,000","1,008,215,000","816,094,000","834,228,000","846,138,000","1,649,443,000","1,546,566,000","1,599,895,000","1,048,727,000","779,722,000","668,481,000","718,506,000","742,689,000","1,367,395,000","2,127,419,000","2,087,213,000","1,481,145,000","1,230,140,000","1,667,212,000","1,318,209,000","1,318,817,000","1,228,016,000","1,108,034,000","876,435,000","1,112,623,000","280,374,000","294,064,000","615,726,000","1,386,728,000","1,577,438,000","1,668,285,000","788,853,000","27,832,000","650,114,000","230,084,000","685,751,000","608,511,000","706,964,000","85,214,000","331,311,000","885,977,000","108,101,000","204,938,000","54,231,000","301,944,000","58,534,000","141,700,000","218,255,000","595,931,000","759,108,000","821,327,000","643,811,000","341,061,000","282,701,000","173,385,000","20,980,000","81,908,000","67,839,000","95,717,000","4,443,000","184,489,000","150,967,000","6,833,000","9,848,000","7,782,000","9,206,000","5,403,000","2,512,000","11,344,000","68,294,000","30,849,000","20,152,000","16,707,000","11,714,000","33,358,000","24,800,000","18,800,000","11,400,000","13,100,000","6,300,000","9,200,000","13,600,000","5,100,000","9,300,000","6,100,000","16,500,000","3,600,000","7,600,000","9,700,000","38,100,000","26,500,000","23,000,000","8,500,000","20,400,000","15,300,000","5,800,000","86,800,000","85,700,000","57,200,000","103,100,000","116,800,000","42,100,000","39,900,000","132,600,000","182,500,000","11,600,000","17,300,000","3,800,000","5,400,000","3,400,000","12,800,000","3,600,000","35,300,000","8,800,000","23,800,000","15,300,000"
				CashFinancial,"4,009,000,000",,,,,,,,,,,,,,,,,,,,,,,,,,,,,,,,,,,,,,,,,,,,,,,,,,,,,,,,,,,,,,,,,,,,,,,,,,,,,,,,,,,,,,,,,,,,,,,,,,,,,,,,,,,,,,,,,,,,,,,,,,,,,,,,,
			OtherShortTermInvestments,,,,,,,,,,,,,,,,,,,"0",,,,,,,,,,,,,,,,,,,,,,"0",,,,"0",,,,,,,,,,,,,,,,,,,,,,,,,,,,,,,,,,,,,,,,,,,,,,,,,,,,,,,,,,,,,,,,,,,,,,,,,,,,,,,,,,,,,
		Receivables,"3,213,000,000","2,335,000,000","2,154,000,000","2,026,000,000","1,828,000,000","1,545,293,000","1,137,528,000","1,140,312,000","1,758,965,000","2,153,323,000","2,063,676,000","2,123,317,000","2,643,655,000","2,343,124,000","2,472,185,000","2,272,109,000","1,964,889,000","1,710,851,000","1,370,416,000","1,205,710,000","1,267,615,000","1,228,625,000","920,367,000","940,472,000","819,670,000","971,314,000","1,176,778,000","1,353,296,000","1,327,702,000","1,850,932,000","2,027,069,000","1,926,775,000","1,801,856,000","1,663,650,000","1,891,813,000","1,832,404,000","1,915,637,000","1,685,781,000","1,633,890,000","1,403,540,000","1,568,084,000","1,477,836,000","1,277,662,000","1,307,434,000","1,259,095,000","1,168,195,000","987,089,000","840,829,000","911,272,000","808,426,000","631,394,000","589,340,000","563,318,000","749,748,000","1,057,174,000","1,468,002,000","1,143,017,000","946,040,000","771,331,000","781,578,000","776,433,000","848,445,000","656,523,000","597,564,000","627,667,000","762,462,000","631,320,000","450,606,000","441,157,000","450,974,000","350,170,000","355,662,000","303,566,000","303,094,000","274,834,000","303,804,000","370,384,000","310,133,000","196,782,000","204,342,000","185,518,000","194,624,000","206,270,000","244,202,000","286,778,000","342,579,000","267,217,000","225,598,000","180,039,000","148,200,000","135,200,000","172,300,000","168,800,000","193,600,000","183,100,000","188,400,000","236,700,000","232,100,000","223,400,000","207,100,000","224,200,000","277,300,000","185,800,000","193,600,000","180,800,000","168,500,000","162,800,000","154,200,000","146,200,000","126,200,000","94,300,000","105,700,000","117,100,000","125,200,000","96,500,000","106,400,000","112,300,000","101,700,000","85,300,000","81,200,000","63,400,000","89,500,000","58,800,000","61,100,000","85,900,000","91,300,000","63,700,000","64,800,000","34,900,000","81,300,000"
			AccountsReceivable,"3,213,000,000","2,335,000,000","2,154,000,000","2,015,000,000","1,828,000,000","1,522,256,000","1,134,346,000","943,354,000","1,449,637,000","2,001,658,000","1,927,996,000","2,001,953,000","2,203,438,000","1,915,215,000","2,151,247,000","1,907,990,000","1,702,100,000","1,597,494,000","1,243,535,000","1,114,454,000","1,187,112,000","1,216,320,000","920,189,000","935,592,000","780,625,000","930,610,000","1,123,111,000","1,304,848,000","1,266,582,000","1,779,311,000","2,009,091,000","1,902,248,000","1,801,665,000","1,658,853,000","1,849,517,000","1,808,954,000","1,891,202,000","1,656,618,000","1,579,841,000","1,375,092,000","1,543,491,000","1,451,227,000","1,249,649,000","1,279,740,000","1,228,549,000","1,113,279,000","897,732,000","810,145,000","869,042,000","771,417,000","604,260,000","570,262,000","558,119,000","722,695,000","1,048,385,000","1,228,560,000","1,010,020,000","835,670,000","678,762,000","741,907,000","734,231,000","754,134,000","656,523,000","597,564,000","627,667,000","762,207,000","631,320,000","450,606,000","441,157,000","447,742,000","350,170,000","355,662,000","303,566,000","295,118,000","274,834,000","303,804,000","370,384,000","259,308,000","196,782,000","204,342,000","185,518,000","194,624,000","206,270,000","244,202,000","286,778,000",,,,,,,,,,,,,,,,,,,,,,,,,,,,,,,,,,,,,,,,,,,,,
			TaxesReceivable,,"0","0","11,000,000","0","23,037,000","3,182,000","196,958,000","309,328,000","151,665,000","135,680,000","121,364,000","440,217,000","427,909,000","320,938,000","364,119,000","262,789,000","113,357,000","126,881,000","91,256,000","80,503,000","12,305,000","178,000","4,880,000","39,045,000","40,704,000","53,667,000","48,448,000","61,120,000","71,621,000","17,978,000","24,527,000","191,000","4,797,000","42,296,000","23,450,000","24,435,000","29,163,000","54,049,000","28,448,000","24,593,000","26,609,000","28,013,000","27,694,000","30,546,000","54,916,000","89,357,000","30,684,000","42,230,000","37,009,000","27,134,000","19,078,000","5,199,000",,,,,,,,,,,,,,,,,,,,,,,,,,,,,,,,,,,,,,,,,,,,,,,,,,,,,,,,,,,,,,,,,,,,,,,,,,,,,
			OtherReceivables,,,,,,,,,,,,,,,,,,,"0",,,,,,,,,,,,,,,"0",,,,,,,,,,,,,,,,,"0",,,"27,053,000","8,789,000","239,442,000","132,997,000","110,370,000","92,569,000","39,671,000","42,202,000","94,311,000",,,,"255,000",,"0",,"3,232,000",,,"0","7,976,000","0",,,"50,825,000",,"0",,,,,,,,,,,,,,,,,,,,,,,,,,,,,,,,,,,,,,,,,,,,,,,,,,
		Inventory,"586,000,000","584,000,000","521,000,000","516,000,000","562,000,000","629,401,000","668,541,000","676,580,000","662,398,000","767,297,000","778,120,000","853,128,000","860,764,000","859,359,000","766,964,000","670,994,000","584,729,000","483,865,000","344,016,000","336,198,000","314,194,000","350,017,000","429,667,000","495,826,000","538,926,000","598,935,000","660,252,000","661,162,000","764,206,000","706,597,000","672,899,000","667,108,000","635,419,000","563,268,000","566,004,000","657,400,000","697,478,000","683,187,000","657,880,000","620,260,000","561,512,000","590,594,000","580,355,000","540,094,000","481,826,000","415,792,000","381,263,000","306,563,000","313,067,000","261,723,000","240,230,000","243,614,000","242,627,000","187,970,000","146,571,000","109,971,000","98,565,000","102,322,000","109,838,000","116,300,000","122,461,000","113,591,000","117,385,000","98,430,000","76,638,000","63,215,000","54,887,000","52,188,000","48,741,000","40,037,000","30,739,000","30,253,000","23,758,000","21,922,000","20,788,000","18,972,000","18,282,000","18,928,000","18,103,000","17,058,000","18,302,000","18,871,000","21,576,000","20,424,000","20,307,000","16,623,000","16,612,000","17,364,000","16,954,000","18,800,000","20,500,000","35,200,000","38,400,000","39,600,000","35,100,000","34,800,000","34,400,000","32,000,000","32,100,000","29,500,000","28,200,000","20,700,000","19,400,000","15,800,000","13,700,000","11,700,000","11,600,000","15,400,000","16,100,000","15,700,000","17,900,000","16,600,000",,"14,100,000",,"12,100,000","8,400,000","9,500,000","10,000,000","10,100,000","12,300,000","13,200,000","12,700,000","14,500,000","13,500,000","13,200,000","13,500,000","13,300,000","15,000,000","15,200,000"
		CurrentDeferredAssets,,,,,,,,,,,,,,,,,,,,,,"169,387,000","137,098,000","46,712,000","177,057,000","147,812,000","40,619,000","39,613,000","18,703,000","19,618,000","238,258,000","485,507,000","429,695,000","244,606,000","127,658,000","157,012,000","102,035,000",,"120,967,000",,,"0","0","0","28,072,000","9,260,000",,"1,169,000","5,133,000",,,,"6,822,000",,,"347,928,000","191,072,000","33,533,000",,,"9,767,000",,,,,"24,376,000","28,134,000","26,644,000","25,788,000","22,227,000","22,560,000","39,564,000","46,515,000","31,548,000",,,,,,,,,,,,,,,,,,,,,,,,,,,,,,,,,,,,,,,,,,,,,,,,,,,,,,,,
			CurrentDeferredTaxesAssets,,,,,,,,,,,,,,,,,,,,,,"169,387,000","137,098,000","46,712,000","177,057,000","147,812,000","40,619,000","39,613,000","18,703,000","19,618,000","238,258,000","485,507,000","429,695,000","244,606,000","127,658,000","157,012,000","102,035,000",,"120,967,000",,,"0","0","0","28,072,000","9,260,000",,"1,169,000","5,133,000",,,,"6,822,000",,,"347,928,000","191,072,000","33,533,000",,,"9,767,000",,,,,"24,376,000","28,134,000","26,644,000","25,788,000","22,227,000","22,560,000","39,564,000","46,515,000","31,548,000",,,,,,,,,,,,,,,,,,,,,,,,,,,,,,,,,,,,,,,,,,,,,,,,,,,,,,,,
		HedgingAssetsCurrent,,"0","18,000,000",,"0","64,559,000","18,417,000","207,019,000","932,928,000","1,299,000","122,627,000","134,951,000","3,909,000","23,806,000","1,569,000","1,840,000","761,000","7,699,000","3,297,000","4,746,000","1,142,000",,"2,185,000",,"4,070,000","0","71,503,000","106,821,000","329,825,000","465,128,000","132,931,000","0","0","8,260,000","44,484,000","105,667,000","32,711,000","166,135,000",,,"451,399,000",,,,"45,498,000",,,,,,,,,,,,,,,,,,,,,,,,,,,,,,,,,,,,,,,,,,,,,,,,,,,,,,,,,,,,,,,,,,,,,,,,,,,,,,,,,,,,,
		OtherCurrentAssets,"671,000,000","456,000,000","363,000,000","513,000,000","413,000,000","293,987,000","205,015,000","156,979,000","229,906,000","323,448,000","272,203,000","223,640,000","263,747,000","275,467,000","302,242,000","278,694,000","218,624,000","242,465,000","200,096,000","187,276,000","264,559,000","206,679,000","199,720,000","187,389,000","157,608,000","155,677,000","133,117,000","209,431,000","225,513,000","286,533,000","332,414,000","415,215,000","288,294,000","274,022,000","243,191,000","260,341,000","225,123,000","178,346,000","474,802,000","643,884,000","166,974,000","569,782,000","490,617,000","212,984,000","114,827,000","145,346,000","138,261,000","117,468,000","86,301,000","83,641,000","351,554,000","670,358,000","911,758,000","839,422,000","386,795,000","54,095,000","52,654,000","155,913,000","127,112,000","107,356,000","77,745,000","169,789,000","213,162,000","143,608,000","139,126,000","69,374,000","88,610,000","54,366,000","42,995,000","52,585,000","72,302,000","57,106,000","34,288,000","35,007,000","77,865,000","79,038,000","99,713,000","55,883,000","90,712,000","45,382,000","56,995,000","56,414,000","97,002,000","51,657,000","20,981,000","15,073,000","30,603,000","11,073,000","6,741,000","8,700,000","27,900,000","6,400,000","7,400,000","6,900,000","7,900,000","8,300,000","7,700,000","8,600,000","15,500,000","16,900,000","17,900,000","20,300,000","16,700,000","20,100,000","8,600,000","14,600,000","8,600,000","8,700,000","10,400,000","8,700,000","8,200,000","8,300,000","23,200,000","7,000,000","24,300,000","11,300,000","3,300,000","3,200,000","4,900,000","5,400,000","3,700,000","3,200,000","5,700,000","11,500,000","3,000,000","2,900,000","1,100,000","1,900,000","28,500,000","500,000"
	TotalNonCurrentAssets,"29,618,000,000","29,652,000,000","29,823,000,000","29,950,000,000","29,980,000,000","29,942,433,000","29,978,961,000","30,624,280,000","31,143,035,000","31,851,269,000","31,722,538,000","31,255,980,000","30,755,650,000","28,877,084,000","28,820,644,000","27,860,528,000","27,155,420,000","26,553,970,000","26,041,342,000","25,880,244,000","25,817,898,000","25,904,830,000","22,817,157,000","23,380,417,000","23,972,611,000","24,383,000,000","24,452,289,000","30,146,378,000","29,899,086,000","29,346,666,000","29,616,167,000","28,577,689,000","27,318,812,000","26,502,223,000","25,955,303,000","24,836,312,000","24,151,595,000","23,746,694,000","24,032,329,000","23,050,519,000","22,513,503,000","21,584,859,000","21,059,316,000","20,321,429,000","19,947,919,000","19,096,787,000","18,410,414,000","17,549,540,000","16,963,211,000","16,279,126,000","15,389,604,000","14,582,476,000","14,173,970,000","13,842,775,000","13,356,213,000","12,136,670,000","11,260,313,000","10,796,868,000","10,157,482,000","9,460,496,000","8,698,748,000","8,052,080,000","7,582,015,000","7,043,447,000","6,578,632,000","6,190,082,000","5,882,541,000","5,561,152,000","5,384,962,000","5,212,120,000","4,866,918,000","4,576,542,000","4,451,209,000","4,353,001,000","3,868,086,000","3,687,560,000","3,575,443,000","3,419,214,000","3,379,578,000","3,313,610,000","3,213,305,000","3,141,623,000","3,050,170,000","2,826,144,000","2,653,365,000","2,606,388,000","2,541,354,000","2,385,995,000","2,378,993,000","2,410,300,000","2,394,900,000","2,736,700,000","2,762,500,000","2,771,700,000","2,726,200,000","2,517,900,000","2,454,900,000","2,441,400,000","2,334,700,000","2,265,900,000","2,196,500,000","2,132,500,000","1,993,500,000","1,922,500,000","1,926,500,000","1,929,500,000","1,918,500,000","1,848,200,000","1,803,400,000","1,705,500,000","1,648,600,000","1,587,600,000","1,574,200,000","1,561,800,000","1,522,200,000","1,527,300,000","1,514,800,000","1,484,000,000","1,375,800,000","1,357,800,000","1,341,100,000","1,345,900,000","1,331,500,000","1,326,000,000","1,312,600,000","1,306,900,000","1,291,700,000","1,298,600,000","1,265,800,000","1,253,500,000"
		NetPPE,"28,462,000,000","28,426,000,000","28,545,000,000","28,659,000,000","28,666,000,000","28,598,627,000","28,633,006,000","29,233,465,000","29,694,054,000","30,364,595,000","30,204,322,000","29,724,431,000","29,129,003,000","28,075,519,000","27,947,741,000","27,153,795,000","26,375,648,000","25,665,037,000","25,724,589,000","25,580,160,000","25,606,460,000","25,707,078,000","22,644,385,000","23,212,879,000","23,801,433,000","24,210,721,000","24,275,332,000","29,975,178,000","29,721,721,000","29,172,644,000","29,216,833,000","28,195,431,000","26,998,437,000","26,148,836,000","25,599,191,000","24,580,388,000","23,937,970,000","23,337,681,000","23,686,450,000","22,689,714,000","22,133,841,000","21,288,824,000","20,736,198,000","19,996,823,000","19,641,452,000","18,680,900,000","18,249,810,000","17,424,318,000","16,816,935,000","16,139,225,000","15,252,555,000","14,445,679,000","14,006,530,000","13,657,302,000","13,132,370,000","11,988,720,000","11,144,551,000","10,429,254,000","10,034,206,000","9,339,856,000","8,580,838,000","7,944,047,000","7,454,176,000","6,934,017,000","6,472,821,000","6,087,179,000","5,780,413,000","5,455,037,000","5,287,208,000","5,101,603,000","4,758,036,000","4,467,019,000","4,336,307,000","4,248,917,000","3,703,793,000","3,594,857,000","3,482,010,000","3,321,548,000","3,282,756,000","3,227,288,000","3,125,090,000","3,055,910,000","2,961,235,000","2,744,530,000","2,569,541,000","2,525,007,000","2,443,375,000","2,291,913,000","2,294,811,000","2,334,900,000","2,324,300,000","2,666,800,000","2,681,300,000","2,676,400,000","2,665,300,000","2,459,800,000","2,401,800,000","2,387,200,000","2,306,200,000","2,237,200,000","2,165,000,000","2,099,600,000","1,958,700,000","1,881,800,000","1,881,600,000","1,881,400,000","1,843,200,000","1,775,500,000","1,727,800,000","1,684,800,000","1,637,800,000","1,573,700,000","1,556,800,000","1,546,000,000","1,504,400,000","1,509,100,000","1,497,100,000","1,468,000,000","1,358,100,000","1,339,800,000","1,329,900,000","1,339,700,000","1,324,900,000","1,318,300,000","1,309,900,000","1,305,100,000","1,290,000,000","1,297,100,000","1,263,600,000","1,249,700,000"
			GrossPPE,"70,209,000,000","72,397,000,000","71,718,000,000","70,934,000,000","70,235,000,000","69,271,774,000","68,422,543,000","69,072,060,000","68,695,189,000","67,302,661,000","66,014,519,000","64,542,826,000","62,969,634,000","61,550,681,000","60,991,195,000","59,460,529,000","57,937,219,000","56,516,500,000","55,651,136,000","54,857,519,000","54,173,329,000","53,600,655,000","54,479,581,000","55,356,752,000","55,163,642,000","54,599,851,000","53,916,125,000","52,776,302,000","51,577,154,000","50,254,490,000","51,484,475,000","49,645,012,000","47,452,408,000","45,788,888,000","44,841,986,000","43,109,551,000","41,844,641,000","40,866,917,000","39,630,683,000","37,938,308,000","37,369,381,000","35,814,424,000","34,190,103,000","33,460,357,000","32,389,458,000","30,996,882,000","29,807,066,000","28,137,349,000","27,142,863,000","25,964,443,000","24,776,867,000","23,464,653,000","22,546,260,000","21,861,517,000","21,117,377,000","19,706,716,000","18,533,202,000","17,563,238,000","16,955,361,000","15,890,787,000","14,793,485,000","13,893,851,000","13,188,912,000","12,446,522,000","11,742,417,000","11,173,389,000","10,719,464,000","10,193,805,000","9,934,032,000","9,599,276,000","9,069,633,000","8,616,115,000","8,384,989,000","8,189,062,000","7,495,980,000","7,269,638,000","7,020,859,000","6,750,095,000","6,584,002,000","6,438,142,000","6,223,989,000","6,065,603,000","5,851,142,000","5,529,871,000","5,251,407,000","5,122,728,000","4,942,760,000","4,709,569,000","4,625,619,000","4,602,700,000","4,783,000,000","4,965,100,000","4,903,400,000","4,814,500,000","4,762,900,000","4,487,700,000","4,375,200,000","4,291,400,000","4,156,800,000","4,016,700,000","3,879,700,000","3,753,200,000","3,565,400,000","3,429,500,000","3,390,800,000","3,380,800,000","3,266,800,000","3,200,400,000","3,181,900,000","3,015,400,000","2,911,800,000","2,871,300,000","2,783,000,000","2,772,200,000","2,622,800,000","2,627,500,000","2,560,100,000","2,475,400,000","2,333,600,000","2,275,500,000","1,330,800,000","2,228,700,000","2,168,100,000","2,210,700,000","2,108,600,000","2,066,000,000","2,013,100,000","2,000,000,000","1,941,000,000","1,893,400,000"
				LandAndImprovements,,,,,,,,,,,,,,,,,,,,,,,,,,,,,,,,,,,,,,,,,,,,,,,,,,,,,,"20,803,629,000","20,216,168,000","18,929,852,000","17,864,994,000","16,981,836,000","16,955,361,000","15,890,787,000","14,793,485,000","13,893,851,000","13,188,912,000","12,446,522,000","11,742,417,000","11,173,389,000","10,719,464,000","10,193,805,000","9,934,032,000","9,599,276,000","9,069,633,000",,"8,384,989,000","8,189,062,000","7,495,980,000","7,269,638,000","7,020,859,000","6,750,095,000","6,584,002,000","6,438,142,000",,"6,065,603,000","5,851,142,000","5,529,871,000","5,251,407,000",,,,,,,,,,,,,,,,,,,,,,,,,,,,,,,,,,,,,,,,,,,,,
				MachineryFurnitureEquipment,,,,,,,,,,,,,,,,,,,,,,,,,,,,,,,,,,,,,,,,,,,,,,,"1,598,453,000","1,490,111,000",,,,,,,,,,,,,,,,,,,,,,,,,,,,,,,,,,,,,,,,,,,,,,,,,,,,,,,,,,,,,,,,,,,,,,,,,,,,,,,,,,
				OtherProperties,"4,801,000,000","4,753,000,000","4,694,000,000","4,635,000,000","4,590,000,000","4,478,976,000","4,402,091,000","4,665,815,000","4,648,834,000","4,472,246,000","4,394,486,000","4,328,675,000","4,277,888,000","4,220,665,000","4,191,958,000","4,141,479,000","4,082,781,000","3,960,759,000","3,934,137,000","3,883,759,000","3,977,721,000","4,008,564,000","4,013,602,000","4,001,132,000","4,004,310,000","3,986,610,000","3,890,934,000","3,840,210,000","3,849,210,000","3,750,958,000","3,571,545,000","3,374,278,000","3,128,400,000","2,967,085,000","2,954,085,000","2,846,971,000","2,769,601,000","2,740,619,000","2,609,467,000","2,375,862,000",,,,,,,"28,208,613,000","26,647,238,000",,,,,,"1,057,888,000","901,209,000","776,864,000","668,208,000","581,402,000",,"0",,"0",,,,"0",,"0",,,,,"0","0","0",,,,,"0",,,,,,,,,,,,,,,,,,,,,,,,,,,,,,,,,,,,,,,,,,,,,,,,,,
			AccumulatedDepreciation,"-41,747,000,000","-43,971,000,000","-43,173,000,000","-42,275,000,000","-41,569,000,000","-40,673,147,000","-39,789,537,000","-39,838,595,000","-39,001,135,000","-36,938,066,000","-35,810,197,000","-34,818,395,000","-33,840,631,000","-33,475,162,000","-33,043,454,000","-32,306,734,000","-31,561,571,000","-30,851,463,000","-29,926,547,000","-29,277,359,000","-28,566,869,000","-27,893,577,000","-31,835,196,000","-32,143,873,000","-31,362,209,000","-30,389,130,000","-29,640,793,000","-22,801,124,000","-21,855,433,000","-21,081,846,000","-22,267,642,000","-21,449,581,000","-20,453,971,000","-19,640,052,000","-19,242,795,000","-18,529,163,000","-17,906,671,000","-17,529,236,000","-15,944,233,000","-15,248,594,000","-15,235,540,000","-14,525,600,000","-13,453,905,000","-13,463,534,000","-12,748,006,000","-12,315,982,000","-11,557,256,000","-10,713,031,000","-10,325,928,000","-9,825,218,000","-9,524,312,000","-9,018,974,000","-8,539,730,000","-8,204,215,000","-7,985,007,000","-7,717,996,000","-7,388,651,000","-7,133,984,000","-6,921,155,000","-6,550,931,000","-6,212,647,000","-5,949,804,000","-5,734,736,000","-5,512,505,000","-5,269,596,000","-5,086,210,000","-4,939,051,000","-4,738,768,000","-4,646,824,000","-4,497,673,000","-4,311,597,000","-4,149,096,000","-4,048,682,000","-3,940,145,000","-3,792,187,000","-3,674,781,000","-3,538,849,000","-3,428,547,000","-3,301,246,000","-3,210,854,000","-3,098,899,000","-3,009,693,000","-2,889,907,000","-2,785,341,000","-2,681,866,000","-2,597,721,000","-2,499,385,000","-2,417,656,000","-2,330,808,000","-2,267,800,000","-2,458,700,000","-2,298,300,000","-2,222,100,000","-2,138,100,000","-2,097,600,000","-2,027,900,000","-1,973,400,000","-1,904,200,000","-1,850,600,000","-1,779,500,000","-1,714,700,000","-1,653,600,000","-1,606,700,000","-1,547,700,000","-1,509,200,000","-1,499,400,000","-1,423,600,000","-1,424,900,000","-1,454,100,000","-1,330,600,000","-1,274,000,000","-1,297,600,000","-1,226,200,000","-1,226,200,000","-1,118,400,000","-1,118,400,000","-1,063,000,000","-1,007,400,000","-975,500,000","-935,700,000","-900,000","-889,000,000","-843,200,000","-892,400,000","-798,700,000","-760,900,000","-723,100,000","-702,900,000","-677,400,000","-643,700,000"
		NonCurrentDeferredAssets,"13,000,000","11,000,000","14,000,000","3,000,000","4,000,000","2,127,000","1,916,000","1,846,000","2,558,000","2,363,000","1,998,000","1,489,000","1,224,000","777,000","16,880,000","17,067,000","18,182,000","17,506,000","17,406,000","16,888,000","16,232,000",,,,,,,,,,,,,,,,,,,,,,,,,,,,,,,,,,,,,,,,,,,,,,,,,,,,,,,,,,,,,,,,,,,,,,,,,,,,,,,,,,,,,,,,,,,,,,,,,,,,,,,,,,,,,
			NonCurrentDeferredTaxesAssets,"13,000,000","11,000,000","14,000,000","3,000,000","4,000,000","2,127,000","1,916,000","1,846,000","2,558,000","2,363,000","1,998,000","1,489,000","1,224,000","777,000","16,880,000","17,067,000","18,182,000","17,506,000","17,406,000","16,888,000","16,232,000",,,,,,,,,,,,,,,,,,,,,,,,,,,,,,,,,,,,,,,,,,,,,,,,,,,,,,,,,,,,,,,,,,,,,,,,,,,,,,,,,,,,,,,,,,,,,,,,,,,,,,,,,,,,,
		OtherNonCurrentAssets,"1,143,000,000","1,215,000,000","1,264,000,000","1,288,000,000","1,310,000,000","1,341,679,000","1,344,039,000","1,388,969,000","1,446,423,000","1,484,311,000","1,516,218,000","1,530,060,000","1,625,423,000","800,788,000","856,023,000","689,666,000","761,590,000","871,427,000","299,347,000","283,196,000","195,206,000","197,752,000","172,772,000","167,538,000","171,178,000","172,279,000","176,957,000","171,200,000","177,365,000","174,022,000","399,334,000","382,258,000","320,375,000","353,387,000","356,112,000","255,924,000","213,625,000","409,013,000","345,879,000","360,805,000","379,662,000","296,035,000","323,118,000","324,606,000","306,467,000","415,887,000","160,604,000","125,222,000","146,276,000","139,901,000","137,049,000","136,797,000","167,440,000","185,473,000","223,843,000","147,950,000","115,762,000","367,614,000","123,276,000","120,640,000","117,910,000","108,033,000","127,839,000","109,430,000","105,811,000","102,903,000","102,128,000","106,115,000","97,754,000","110,517,000","108,882,000","109,523,000","114,902,000","104,084,000","164,293,000","92,703,000","93,433,000","97,666,000","96,822,000","86,322,000","88,215,000","85,713,000","88,935,000","81,614,000","83,824,000","81,381,000","97,979,000","94,082,000","84,182,000","75,400,000","70,600,000","69,900,000","81,200,000","95,300,000","60,900,000","58,100,000","53,100,000","54,200,000","28,500,000","28,700,000","31,500,000","32,900,000","34,800,000","40,700,000","44,900,000","48,100,000","75,300,000","72,700,000","75,600,000","20,700,000","10,800,000","13,900,000","17,400,000","15,800,000","17,800,000","18,200,000","17,700,000","16,000,000","17,700,000","18,000,000","11,200,000","6,200,000","6,600,000","7,700,000","2,700,000","1,800,000","1,700,000","1,500,000","2,200,000","3,800,000"
TotalLiabilitiesNetMinorityInterest,"16,557,000,000","16,056,000,000","15,407,000,000","16,004,000,000","15,409,000,000","15,502,714,000","14,925,692,000","14,834,114,000","16,163,409,000","15,483,892,000","15,417,989,000","15,121,225,000","15,759,738,000","14,570,286,000","15,099,266,000","14,639,986,000","13,899,878,000","13,549,805,000","14,883,041,000","15,361,902,000","15,283,743,000","15,477,852,000","13,756,609,000","13,773,837,000","13,932,935,000","14,032,209,000","13,993,024,000","16,456,853,000","17,221,956,000","17,050,105,000","16,780,985,000","16,594,046,000","16,107,974,000","15,155,779,000","15,285,690,000","14,692,526,000","14,476,304,000","14,051,814,000","14,239,021,000","12,643,436,000","12,563,693,000","12,197,893,000","12,300,830,000","11,882,194,000","11,757,143,000","11,392,601,000","9,826,735,000","9,334,664,000","8,344,151,000","8,120,625,000","7,703,553,000","7,533,230,000","6,868,172,000","6,936,729,000","6,912,770,000","6,798,596,000","5,760,038,000","5,098,813,000","4,840,559,000","4,231,675,000","3,981,190,000","3,802,489,000","3,690,783,000","3,493,761,000","3,500,030,000","3,437,028,000","3,175,098,000","3,028,235,000","2,963,386,000","2,853,499,000","2,698,685,000","2,649,035,000","2,639,496,000","2,525,634,000","2,325,615,000","2,258,537,000","2,247,703,000","2,141,611,000","2,027,118,000","1,903,943,000","1,854,409,000","1,771,358,000","1,696,872,000","1,552,135,000","1,480,006,000","1,619,890,000","1,624,169,000","1,488,589,000","1,482,189,000","1,481,200,000","1,645,600,000","1,652,000,000","1,705,500,000","1,737,800,000","1,685,700,000","1,463,200,000","1,439,400,000","1,442,400,000","1,336,400,000","1,280,900,000","1,220,400,000","1,193,300,000","988,100,000","975,900,000","980,700,000","983,600,000","950,700,000","916,100,000","905,300,000","818,500,000","836,100,000","822,600,000","819,700,000","878,100,000","860,800,000","824,100,000","828,000,000","897,000,000","858,100,000","790,200,000","771,900,000","805,400,000","780,400,000","764,300,000","809,500,000","807,900,000","811,300,000","805,100,000","781,600,000","783,500,000"
	CurrentLiabilities,"6,264,000,000","4,042,000,000","3,484,000,000","4,002,000,000","3,312,000,000","3,460,104,000","3,020,042,000","2,154,381,000","4,305,011,000","4,486,988,000","4,473,713,000","4,414,057,000","4,301,268,000","3,728,364,000","4,425,147,000","4,297,301,000","2,836,758,000","2,725,542,000","2,180,024,000","2,722,254,000","2,032,007,000","2,027,291,000","1,732,963,000","1,712,261,000","1,547,972,000","1,819,287,000","2,046,961,000","2,277,581,000","3,094,752,000","3,384,308,000","3,378,746,000","3,537,487,000","3,395,642,000","2,861,716,000","3,347,333,000","3,020,303,000","3,074,691,000","2,924,058,000","2,578,383,000","2,679,940,000","2,772,347,000","2,522,319,000","2,666,323,000","2,476,238,000","2,500,191,000","2,220,099,000","1,938,300,000","1,558,137,000","1,493,009,000","1,345,560,000","1,201,151,000","1,189,620,000","1,283,297,000","1,764,916,000","1,833,080,000","2,445,040,000","1,724,918,000","1,474,170,000","1,341,553,000","1,158,532,000","1,098,546,000","1,255,012,000","1,258,968,000","1,082,517,000","1,067,525,000","1,172,041,000","773,258,000","604,772,000","562,787,000","632,204,000","524,428,000","506,064,000","493,024,000","476,519,000","353,928,000","323,120,000","331,290,000","276,351,000","268,782,000","233,734,000","261,640,000","310,847,000","382,498,000","395,918,000","406,081,000","369,678,000","289,752,000","206,500,000","235,715,000","218,600,000","212,100,000","199,500,000","221,600,000","262,600,000","268,500,000","239,200,000","245,800,000","291,000,000","233,200,000","219,000,000","265,900,000","317,400,000","215,600,000","181,200,000","142,600,000","169,300,000","156,500,000","144,100,000","143,000,000","164,600,000","151,900,000","165,800,000","167,400,000","217,900,000","163,600,000","160,000,000","141,700,000","194,700,000","119,000,000","98,900,000","87,800,000","113,300,000","115,600,000","104,000,000","118,600,000","110,000,000","112,900,000","79,300,000","82,100,000","81,300,000"
		PayablesAndAccruedExpenses,"4,226,000,000","3,196,000,000","2,704,000,000","3,118,000,000","2,633,000,000","2,104,366,000","1,729,608,000","1,691,933,000","3,309,493,000","2,850,250,000","2,864,069,000","2,822,239,000","2,818,840,000","2,581,547,000","2,811,836,000","2,656,982,000","2,201,818,000","2,092,415,000","1,912,337,000","1,866,773,000","1,796,740,000","1,726,357,000","1,531,339,000","1,535,725,000","1,366,671,000","1,657,117,000","1,827,848,000","2,120,349,000","2,395,050,000","3,092,240,000","3,124,384,000","2,957,907,000","2,985,885,000","2,464,578,000","2,498,944,000","2,414,162,000","2,463,882,000","2,286,833,000","2,365,437,000","2,423,301,000","2,458,627,000","2,223,298,000","2,126,767,000","2,061,793,000","2,016,103,000","1,786,074,000","1,694,977,000","1,384,561,000","1,263,233,000","1,108,283,000","906,353,000","834,506,000","889,243,000","1,208,474,000","1,477,076,000","1,517,191,000","1,313,891,000","1,256,787,000","1,067,033,000","1,027,201,000","1,004,838,000","1,027,556,000","938,484,000","811,725,000","843,274,000","820,450,000","606,428,000","439,532,000","491,713,000","475,697,000","398,471,000","369,700,000","347,762,000","282,379,000","290,931,000","256,189,000","257,901,000","236,200,000","210,224,000","199,624,000","166,958,000","276,125,000","257,681,000","227,040,000","241,402,000","246,030,000","216,773,000","167,040,000","187,436,000","172,800,000","153,000,000","160,700,000","176,200,000","206,300,000","213,800,000","202,900,000","205,500,000","235,700,000","196,800,000","192,200,000","228,900,000","277,600,000","177,100,000","149,200,000","115,500,000","133,700,000","119,000,000","110,400,000","110,300,000","131,200,000","8,800,000","140,300,000","140,100,000","156,800,000","133,600,000","131,700,000","117,800,000","130,600,000","94,800,000","75,700,000","68,300,000","84,300,000","85,400,000","71,400,000","94,000,000","84,300,000","88,800,000","52,700,000","62,200,000","61,200,000"
			Payables,"4,226,000,000","3,196,000,000","2,704,000,000","3,118,000,000","2,633,000,000","2,104,366,000","1,729,608,000","1,691,933,000","3,309,493,000","2,850,250,000","2,864,069,000","2,822,239,000","2,818,840,000","2,581,547,000","2,811,836,000","2,656,982,000","2,201,818,000","2,092,415,000","1,912,337,000","1,866,773,000","1,796,740,000","1,726,357,000","1,531,339,000","1,535,725,000","1,366,671,000","1,657,117,000","1,827,848,000","2,120,349,000","2,395,050,000","3,092,240,000","3,124,384,000","2,957,907,000","2,985,885,000","2,464,578,000","2,498,944,000","2,414,162,000","2,463,882,000","2,286,833,000","2,365,437,000","2,423,301,000","2,458,627,000","2,223,298,000","2,126,767,000","2,061,793,000","1,879,206,000","1,703,906,000","1,580,214,000","1,384,561,000","1,173,051,000","1,015,425,000","820,019,000","756,036,000","810,377,000","1,122,209,000","1,340,822,000","1,379,602,000","1,208,751,000","1,152,140,000","964,515,000","925,829,000","924,644,000","896,572,000","794,588,000","680,575,000","673,914,000","679,548,000","508,815,000","439,532,000","400,802,000","424,581,000","339,303,000","319,535,000","296,457,000","282,379,000","252,211,000","226,408,000","222,756,000","201,931,000","176,858,000","167,921,000","166,958,000","219,561,000","257,681,000","227,040,000","241,402,000","246,030,000","216,773,000","167,040,000","187,436,000","172,800,000","153,000,000","160,700,000","176,200,000","206,300,000","213,800,000","202,900,000","205,500,000","235,700,000","196,800,000","192,200,000","228,900,000","277,600,000","177,100,000","149,200,000","115,500,000","133,700,000","119,000,000","110,400,000","110,300,000","131,200,000","8,800,000","140,300,000","140,100,000","156,800,000","133,600,000","131,700,000","117,800,000","130,600,000","94,800,000","75,700,000","68,300,000","84,300,000","85,400,000","71,400,000","94,000,000","84,300,000","88,800,000","52,700,000","62,200,000","61,200,000"
				AccountsPayable,"2,660,000,000","2,242,000,000","1,972,000,000","2,012,000,000","1,945,000,000","1,681,193,000","1,245,029,000","1,281,166,000","2,892,320,000","2,429,127,000","2,395,080,000","2,387,403,000","2,452,337,000","2,239,850,000","2,435,773,000","2,336,952,000","1,915,651,000","1,847,131,000","1,635,711,000","1,615,170,000","1,556,875,000","1,511,826,000","1,296,240,000","1,305,651,000","1,182,025,000","1,471,953,000","1,561,574,000","1,864,483,000","2,182,041,000","2,860,548,000","2,775,342,000","2,661,473,000","2,647,209,000","2,254,418,000","2,247,714,000","2,201,940,000","2,258,232,000","2,078,948,000","2,151,093,000","2,235,637,000","2,289,903,000","2,033,615,000","1,926,455,000","1,870,172,000","1,838,959,000","1,664,944,000","1,541,268,000","1,255,657,000","1,134,286,000","979,139,000","783,764,000","720,053,000","774,434,000","1,122,209,000","1,340,822,000","1,379,602,000","1,208,751,000","1,152,140,000","964,515,000","925,829,000","924,644,000","896,572,000","794,588,000","680,575,000","673,914,000","679,548,000","508,815,000","439,532,000","400,802,000","424,581,000","339,303,000","319,535,000","296,457,000","282,379,000","252,211,000","226,408,000","222,756,000","201,931,000","176,858,000","167,921,000","166,958,000","219,561,000","257,681,000","227,040,000","241,402,000","246,030,000","216,773,000","167,040,000","187,436,000","172,800,000","153,000,000","160,700,000","176,200,000","206,300,000","213,800,000","202,900,000","205,500,000","235,700,000","196,800,000","192,200,000","228,900,000","277,600,000","177,100,000","149,200,000","115,500,000","133,700,000","119,000,000","110,400,000","110,300,000","131,200,000","8,800,000","140,300,000","140,100,000","156,800,000","133,600,000","131,700,000","117,800,000","130,600,000","94,800,000","75,700,000","68,300,000","84,300,000","85,400,000","71,400,000","94,000,000","84,300,000","88,800,000","52,700,000","62,200,000","61,200,000"
				TotalTaxPayable,"1,130,000,000","518,000,000","492,000,000","286,000,000","449,000,000","205,754,000","267,245,000","193,763,000","200,240,000","254,850,000","302,774,000","268,837,000","239,524,000","214,726,000","249,234,000","213,461,000","179,646,000","148,874,000","180,277,000","155,458,000","143,710,000","118,411,000","143,257,000","138,395,000","93,077,000","93,618,000","174,897,000","164,366,000","121,729,000","140,098,000","257,948,000","228,569,000","270,908,000","159,365,000","200,477,000","161,608,000","155,140,000","162,083,000","168,691,000","142,223,000","123,391,000","147,105,000","157,297,000","148,645,000",,,,"90,051,000",,,,,,,,,,,,,,,,,,,,,,,,,,,,,,,,,,,,,,,,,,,,,,,,,,,,,,,,,,,,,,,,,,,,,,,,,,,,,,,,,,
				DividendsPayable,"436,000,000","436,000,000","240,000,000","820,000,000","239,000,000","217,419,000","217,334,000","217,004,000","216,933,000","166,273,000","166,215,000","165,999,000","126,979,000","126,971,000","126,829,000","106,569,000","106,521,000","96,410,000","96,349,000","96,145,000","96,155,000","96,120,000","91,842,000","91,679,000","91,569,000","91,546,000","91,377,000","91,500,000","91,280,000","91,594,000","91,094,000","67,865,000","67,768,000","50,795,000","50,753,000","50,614,000","50,510,000","45,802,000","45,653,000","45,441,000","45,333,000","42,578,000","43,015,000","42,976,000","40,247,000","38,962,000","38,946,000","38,853,000","38,765,000","36,286,000","36,255,000","35,983,000","35,943,000",,,,,,,,,,,,,,,,,,,,,,,,,,,,,,,,,,,,,,,,,,,,,,,,,,,,,,,,,,,,,,,,,,,,,,,,,,,,,
				OtherPayable,,,,,,,,,,,,,,,,,,,"0",,,,,,,,,,,,,,,"0",,,,,,,,,,,,,,,,,"0",,,,"0",,,,,"0",,"0",,,,"0",,"0",,,,,"0","0","0",,,,,"0",,,,,,"0",,,,,,,,,"0",,,,,,,,"0",,,,,,,,,,,,,,"0",,,,,,,,,,,"0",,
			CurrentAccruedExpenses,,,,,,,,,,,,,,,,,,,"180,277,000",,,,,,,,,,,,,,,"159,365,000",,,,,,,,,,,"136,897,000","82,168,000","114,763,000","90,051,000","90,182,000","92,858,000","86,334,000","78,470,000","78,866,000","86,265,000","136,254,000","137,589,000","105,140,000","104,647,000","102,518,000","101,372,000","80,194,000","130,984,000","143,896,000","131,150,000","169,360,000","140,902,000","97,613,000",,"90,911,000","51,116,000","59,168,000","50,165,000","51,305,000",,"38,720,000","29,781,000","35,145,000","34,269,000","33,366,000","31,703,000",,"56,564,000",,,,,,,,,,,,,,,,,,,,,,,,,,,,,,,,,,,,,,,,,,,,,,,,
		CurrentDebtAndCapitalLeaseObligation,"1,506,000,000","277,000,000","288,000,000","292,000,000","308,000,000","1,076,143,000","1,026,188,000","273,763,000","841,384,000","1,383,889,000","1,398,548,000","1,410,423,000","1,311,155,000","913,093,000","1,262,874,000","1,262,540,000","363,155,000","356,235,000","6,579,000","606,454,000","6,579,000","6,579,000","6,579,000","6,579,000","6,579,000","6,579,000","36,279,000","6,579,000","506,579,000","6,579,000","6,579,000","6,579,000","6,579,000","6,579,000","406,579,000","406,579,000","406,579,000","406,579,000",,,,,"220,000,000","220,000,000","220,000,000","220,000,000",,,"37,000,000","37,000,000","37,000,000","37,000,000",,"37,000,000","37,000,000",,,,"98,442,000",,,,"124,075,000","124,075,000","124,075,000","126,075,000",,,,,,,,,,,,,,,,,,,,,,,,,,,,,,,,,,,,,,,,,,"1,800,000","1,800,000","1,700,000",,,,"30,000,000",,,,,,,,,,,,,,,,
			CurrentDebt,"1,283,000,000","37,000,000","38,000,000","39,000,000","39,000,000","781,054,000","770,831,000","21,121,000","519,017,000","1,014,524,000","1,014,200,000","1,013,876,000","914,861,000","913,093,000","1,262,874,000","1,262,540,000","363,155,000","356,235,000","6,579,000","606,454,000","6,579,000","6,579,000","6,579,000","6,579,000","6,579,000","6,579,000","36,279,000","6,579,000","506,579,000","6,579,000","6,579,000","6,579,000","6,579,000","6,579,000","406,579,000","406,579,000","406,579,000","406,579,000",,,,,"220,000,000","220,000,000","220,000,000","220,000,000",,,"37,000,000","37,000,000","37,000,000","37,000,000",,"37,000,000","37,000,000",,,,"98,442,000",,,,"124,075,000","124,075,000","124,075,000","126,075,000",,,,,,,,,,,,,,,,,,,,,,,,,,,,,,,,,,,,,,,,,,"1,800,000","1,800,000","1,700,000",,,,"30,000,000",,,,,,,,,,,,,,,,
				OtherCurrentBorrowings,"1,283,000,000","37,000,000","38,000,000","39,000,000","39,000,000","781,054,000","770,831,000","21,121,000","519,017,000","1,014,524,000","1,014,200,000","1,013,876,000","914,861,000","913,093,000","1,262,874,000","1,262,540,000","363,155,000","356,235,000","6,579,000","606,454,000","6,579,000","6,579,000",,"6,579,000",,,,,,"6,579,000","6,579,000","6,579,000","6,579,000","6,579,000","406,579,000","406,579,000","406,579,000","406,579,000",,,,,,,,,,,,,,,,,,,,,,,,,,,,,,,,,,,,,,,,,,,,,,,,,,,,,,,,,,,,,,,,,,,,,,,,,,,,,,,,,,,,,,,,,,,,
			CurrentCapitalLeaseObligation,"223,000,000","277,000,000","250,000,000","253,000,000","269,000,000","295,089,000","255,357,000","252,642,000","322,367,000","369,365,000","384,348,000","396,547,000","396,294,000",,,,,,,,,,,,,,,,,,,,,,,,,,,,,,,,,,,,,,,,,,,,,,,,,,,,,,,,,,,,,,,,,,,,,,,,,,,,,,,,,,,,,,,,,,,,,,,,,,,,,,,,,,,,,,,,,,,,,
		CurrentDeferredLiabilities,,,,,,,,,,,,,,,,,,,,,,,,,,"0","0","0","62,209,000","110,743,000","2,444,000",,,"0","0","4,310,000","2,164,000","22,838,000","2,793,000","121,059,000","148,620,000","135,989,000","139,646,000","62,573,000","113,175,000","70,042,000","45,367,000","9,889,000","20,652,000","35,414,000","114,304,000","213,413,000","296,468,000","368,231,000","200,118,000","61,048,000","19,545,000","108,980,000","84,499,000","54,895,000","21,071,000","144,615,000","122,147,000","83,672,000","36,228,000","164,659,000","105,377,000","52,350,000","20,293,000","103,933,000","66,746,000","36,260,000","14,274,000","73,611,000",,,,,,,,,,,,,,,,,,,,,,,,,,,,,,,,,,,,,,,,,,,,,,,,,,,,,,,,
			CurrentDeferredTaxesLiabilities,,,,,,,,,,,,,,,,,,,,,,,,,,"0","0","0","62,209,000","110,743,000","2,444,000",,,"0","0","4,310,000","2,164,000","22,838,000","2,793,000","121,059,000","122,833,000","135,989,000","139,646,000","50,180,000","7,944,000","41,703,000","45,367,000","9,889,000","20,652,000","35,414,000","114,304,000","213,413,000","296,468,000","368,231,000","200,118,000","61,048,000","19,545,000","108,980,000","84,499,000","54,895,000","21,071,000","144,615,000","122,147,000","83,672,000","36,228,000","164,659,000","105,377,000","52,350,000","20,293,000","103,933,000","66,746,000","36,260,000","14,274,000","73,611,000",,,,,,,,,,,,,,,,,,,,,,,,,,,,,,,,,,,,,,,,,,,,,,,,,,,,,,,,
		OtherCurrentLiabilities,"532,000,000","569,000,000","492,000,000","592,000,000","371,000,000","279,595,000","264,246,000","188,685,000","154,134,000","252,849,000","211,096,000","181,395,000","171,273,000","233,724,000","350,437,000","377,779,000","271,785,000","276,892,000","261,108,000","249,027,000","228,688,000","294,355,000","195,045,000","169,957,000","174,722,000","155,591,000","182,834,000","150,653,000","130,914,000","174,746,000","245,339,000","573,001,000","403,178,000","390,559,000","441,810,000","195,252,000","202,066,000","207,808,000","210,153,000","135,580,000","165,100,000","163,032,000","179,910,000","131,872,000","150,913,000","143,983,000","197,956,000","163,687,000","172,124,000","164,863,000","143,494,000","104,701,000","97,586,000","151,211,000","118,886,000","866,801,000","391,482,000","108,403,000","91,579,000","76,436,000","72,637,000","82,841,000","74,262,000","63,045,000","63,948,000","60,857,000","61,453,000","112,890,000","50,781,000","52,574,000","59,211,000","100,104,000","130,988,000","120,529,000","62,997,000","66,931,000","73,389,000","40,151,000","58,558,000","34,110,000","94,682,000","34,722,000","124,817,000","168,878,000","164,679,000","123,648,000","72,979,000","39,460,000","48,279,000","45,800,000","59,100,000","38,800,000","45,400,000","56,300,000","54,700,000","36,300,000","40,300,000","55,300,000","36,400,000","26,800,000","37,000,000","39,800,000","38,500,000","32,000,000","27,100,000","35,600,000","37,500,000","31,900,000","30,900,000","31,700,000","143,100,000","25,500,000","27,300,000","31,100,000","30,000,000","28,300,000","23,900,000","64,100,000","24,200,000","23,200,000","19,500,000","29,000,000","30,200,000","32,600,000","24,600,000","25,700,000","24,100,000","26,600,000","19,900,000","20,100,000"
	TotalNonCurrentLiabilitiesNetMinorityInterest,"10,293,000,000","12,014,000,000","11,923,000,000","12,002,000,000","12,097,000,000","12,042,610,000","11,905,650,000","12,679,733,000","11,858,398,000","10,996,904,000","10,944,276,000","10,707,168,000","11,458,470,000","10,841,922,000","10,674,119,000","10,342,685,000","11,063,120,000","10,824,263,000","12,703,017,000","12,639,648,000","13,251,736,000","13,450,561,000","12,023,646,000","12,061,576,000","12,384,963,000","12,212,922,000","11,946,063,000","14,179,272,000","14,127,204,000","13,665,797,000","13,402,239,000","13,056,559,000","12,712,332,000","12,294,063,000","11,938,357,000","11,672,223,000","11,401,613,000","11,127,756,000","11,660,638,000","9,963,496,000","9,791,346,000","9,675,574,000","9,634,507,000","9,405,956,000","9,256,952,000","9,172,502,000","7,888,435,000","7,776,527,000","6,851,142,000","6,775,065,000","6,502,402,000","6,343,610,000","5,584,875,000","5,171,813,000","5,079,690,000","4,353,556,000","4,035,120,000","3,624,643,000","3,499,006,000","3,073,143,000","2,882,644,000","2,547,477,000","2,431,815,000","2,411,244,000","2,432,505,000","2,264,987,000","2,401,840,000","2,423,463,000","2,400,599,000","2,221,295,000","2,174,257,000","2,142,971,000","2,146,472,000","2,049,115,000","1,971,687,000","1,935,417,000","1,916,413,000","1,865,260,000","1,758,336,000","1,670,209,000","1,592,769,000","1,460,511,000","1,314,374,000","1,156,217,000","1,073,925,000","1,250,212,000","1,334,417,000","1,282,089,000","1,246,474,000","1,262,600,000","1,433,500,000","1,452,500,000","1,483,900,000","1,475,200,000","1,417,200,000","1,224,000,000","1,193,600,000","1,151,400,000","1,103,200,000","1,061,900,000","954,500,000","875,900,000","772,500,000","794,700,000","838,100,000","814,300,000","794,200,000","772,000,000","762,300,000","653,900,000","684,200,000","656,800,000","652,300,000","660,200,000","697,200,000","664,100,000","686,300,000","702,300,000","739,100,000","691,300,000","684,100,000","692,100,000","664,800,000","660,300,000","690,900,000","697,900,000","698,400,000","725,800,000","699,500,000","702,200,000"
		LongTermDebtAndCapitalLeaseObligation,"3,816,000,000","5,630,000,000","5,079,000,000","5,086,000,000","5,094,000,000","5,035,351,000","4,949,902,000","5,703,141,000","4,703,152,000","4,160,919,000","4,163,115,000","4,165,284,000","5,166,050,000","5,170,169,000","5,171,949,000","5,172,257,000","6,071,604,000","6,030,836,000","6,380,427,000","6,380,350,000","6,980,008,000","6,979,779,000","6,979,538,000","6,979,286,000","6,979,029,000","6,653,685,000","6,393,931,000","6,393,885,000","6,393,690,000","5,903,354,000","5,903,232,000","5,903,099,000","5,902,952,000","5,906,642,000","5,906,494,000","5,906,210,000","5,905,917,000","5,905,602,000","6,305,277,000","5,011,893,000","5,010,523,000","5,009,166,000","5,007,746,000","5,006,251,000","5,004,725,000","5,003,341,000","3,768,638,000","3,734,067,000","2,760,000,000","2,760,000,000","2,760,000,000","2,760,000,000","2,105,100,000","1,860,000,000","1,860,000,000","1,147,000,000","1,185,000,000","1,185,000,000","1,185,000,000","883,842,000","820,042,000","733,442,000","705,442,000","768,442,000","808,667,000","858,992,000","1,042,772,000","1,117,097,000","1,119,797,000","1,077,622,000","1,062,972,000","1,085,822,000","1,085,822,000","1,108,872,000","1,010,822,000","1,010,822,000","1,044,208,000","1,145,132,000","1,090,868,000","1,035,843,000","975,662,000","855,969,000","701,022,000","640,822,000","644,871,000","859,000,000","945,167,000","949,550,000","940,920,000","990,300,000","1,165,200,000","1,139,900,000","1,170,500,000","1,142,800,000","1,074,400,000","850,900,000","799,200,000","741,300,000","678,600,000","633,600,000","518,100,000","466,100,000","300,700,000","288,600,000","318,400,000","289,100,000","263,900,000","213,900,000","198,200,000","190,300,000","183,900,000","176,000,000","153,000,000","153,000,000","150,000,000","150,000,000","150,000,000","150,000,000","159,900,000","426,700,000","418,300,000","422,400,000","396,400,000","382,600,000","413,100,000","418,400,000","408,700,000","450,100,000","393,800,000","360,000,000"
			LongTermDebt,"3,816,000,000","4,859,000,000","5,079,000,000","5,086,000,000","5,094,000,000","5,035,351,000","4,949,902,000","5,703,141,000","4,703,152,000","4,160,919,000","4,163,115,000","4,165,284,000","5,166,050,000","5,170,169,000","5,171,949,000","5,172,257,000","6,071,604,000","6,030,836,000","6,380,427,000","6,380,350,000","6,980,008,000","6,979,779,000","6,979,538,000","6,979,286,000","6,979,029,000","6,653,685,000","6,393,931,000","6,393,885,000","6,393,690,000","5,903,354,000","5,903,232,000","5,903,099,000","5,902,952,000","5,906,642,000","5,906,494,000","5,906,210,000","5,905,917,000","5,905,602,000","6,305,277,000","5,011,893,000","5,010,523,000","5,009,166,000","5,007,746,000","5,006,251,000","5,004,725,000","5,003,341,000","3,768,638,000","3,734,067,000","2,760,000,000","2,760,000,000","2,760,000,000","2,760,000,000","2,105,100,000","1,860,000,000","1,860,000,000","1,147,000,000","1,185,000,000","1,185,000,000","1,185,000,000","883,842,000","820,042,000","733,442,000","705,442,000","768,442,000","808,667,000","858,992,000","1,042,772,000","1,117,097,000","1,119,797,000","1,077,622,000","1,062,972,000","1,085,822,000","1,085,822,000","1,108,872,000","1,010,822,000","1,010,822,000","1,044,208,000","1,145,132,000","1,090,868,000","1,035,843,000","975,662,000","855,969,000","701,022,000","640,822,000","644,871,000","859,000,000","945,167,000","949,550,000","940,920,000","990,300,000","1,165,200,000","1,139,900,000","1,170,500,000","1,142,800,000","1,074,400,000","850,900,000","799,200,000","741,300,000","678,600,000","633,600,000","518,100,000","466,100,000","300,700,000","288,600,000","318,400,000","289,100,000","263,900,000","213,900,000","198,200,000","190,300,000","183,900,000","176,000,000","153,000,000","153,000,000","150,000,000","150,000,000","150,000,000","150,000,000","159,900,000","426,700,000","418,300,000","422,400,000","396,400,000","382,600,000","413,100,000","418,400,000","408,700,000","450,100,000","393,800,000","360,000,000"
			LongTermCapitalLeaseObligation,,"771,000,000",,,,,,,,,,,,,,,,,,,,,,,,,,,,,,,,,,,,,,,,,,,,,,,,,,,,,,,,,,,,,,,,,,,,,,,,,,,,,,,,,,,,,,,,,,,,,,,,,,,,,,,,,,,,,,,,,,,,,,,,,,,,,,,,
		NonCurrentDeferredLiabilities,"4,286,000,000","4,749,000,000","4,630,000,000","4,730,000,000","4,825,000,000","4,859,327,000","4,804,656,000","4,837,896,000","5,091,071,000","5,046,101,000","4,922,804,000","4,738,409,000","4,520,172,000","4,413,398,000","4,199,921,000","3,865,804,000","3,689,578,000","3,518,214,000","5,107,477,000","5,059,520,000","5,023,626,000","5,188,640,000","4,068,345,000","4,103,777,000","4,420,221,000","4,587,902,000","4,581,844,000","6,798,629,000","6,774,446,000","6,822,946,000","6,414,546,000","6,162,010,000","5,886,794,000","5,522,354,000","5,185,083,000","4,970,705,000","4,631,685,000","4,327,396,000","4,513,188,000","4,160,306,000","3,990,407,000","3,867,219,000","3,858,243,000","3,681,009,000","3,571,473,000","3,501,706,000","3,423,942,000","3,423,717,000","3,455,903,000","3,382,413,000","3,133,252,000","3,033,271,000","2,965,632,000","2,813,522,000","2,707,684,000","2,545,139,000","2,387,247,000","2,071,307,000","1,960,675,000","1,861,180,000","1,747,500,000","1,513,128,000","1,416,310,000","1,346,395,000","1,333,988,000","1,122,588,000","1,087,703,000","1,058,229,000","1,028,805,000","902,354,000","915,803,000","876,406,000","879,921,000","769,128,000","797,010,000","766,531,000","721,315,000","660,948,000","613,675,000","582,348,000","563,347,000","551,020,000","557,185,000","455,439,000","372,508,000","340,079,000","324,743,000","265,923,000","243,430,000","226,000,000","233,500,000","265,400,000","256,500,000","260,300,000","273,700,000","291,500,000","285,800,000","287,700,000","317,200,000","315,100,000","314,400,000","308,900,000","305,200,000","312,000,000","300,700,000","308,100,000","292,300,000","301,800,000","285,000,000","269,300,000","291,800,000","266,400,000","272,500,000","270,200,000","303,500,000","247,500,000","247,600,000","241,900,000","242,300,000","256,000,000","256,600,000","260,300,000","259,000,000","268,400,000","271,300,000","276,100,000","283,100,000","266,600,000","298,200,000","295,400,000"
			NonCurrentDeferredTaxesLiabilities,"4,286,000,000","4,749,000,000","4,630,000,000","4,730,000,000","4,825,000,000","4,859,327,000","4,804,656,000","4,837,896,000","5,091,071,000","5,046,101,000","4,922,804,000","4,738,409,000","4,520,172,000","4,413,398,000","4,199,921,000","3,865,804,000","3,689,578,000","3,518,214,000","5,107,477,000","5,059,520,000","5,023,626,000","5,188,640,000","4,068,345,000","4,103,777,000","4,420,221,000","4,587,902,000","4,581,844,000","6,798,629,000","6,774,446,000","6,822,946,000","6,414,546,000","6,162,010,000","5,886,794,000","5,522,354,000","5,185,083,000","4,970,705,000","4,631,685,000","4,327,396,000","4,513,188,000","4,160,306,000","3,990,407,000","3,867,219,000","3,858,243,000","3,681,009,000","3,571,473,000","3,501,706,000","3,423,942,000","3,423,717,000","3,455,903,000","3,382,413,000","3,133,252,000","3,033,271,000","2,965,632,000","2,813,522,000","2,707,684,000","2,545,139,000","2,387,247,000","2,071,307,000","1,960,675,000","1,861,180,000","1,747,500,000","1,513,128,000","1,416,310,000","1,346,395,000","1,333,988,000","1,122,588,000","1,087,703,000","1,058,229,000","1,028,805,000","902,354,000","915,803,000","876,406,000","879,921,000","769,128,000","797,010,000","766,531,000","721,315,000","660,948,000","613,675,000","582,348,000","563,347,000","551,020,000","557,185,000","455,439,000","372,508,000","340,079,000","324,743,000","265,923,000","243,430,000","226,000,000","233,500,000","265,400,000","256,500,000","260,300,000","273,700,000","291,500,000","285,800,000","287,700,000","317,200,000","315,100,000","314,400,000","308,900,000","305,200,000","312,000,000","300,700,000","308,100,000","292,300,000","301,800,000","285,000,000","269,300,000","291,800,000","266,400,000","272,500,000","270,200,000","303,500,000","247,500,000","247,600,000","241,900,000","242,300,000","256,000,000","256,600,000","260,300,000","259,000,000","268,400,000","271,300,000","276,100,000","283,100,000","266,600,000","298,200,000","295,400,000"
		OtherNonCurrentLiabilities,"2,191,000,000","1,635,000,000","2,214,000,000","2,186,000,000","2,178,000,000","2,147,932,000","2,151,092,000","2,138,696,000","2,064,175,000","1,789,884,000","1,858,357,000","1,803,475,000","1,772,248,000","1,258,355,000","1,302,249,000","1,304,624,000","1,301,938,000","1,275,213,000","1,215,113,000","1,199,778,000","1,248,102,000","1,282,142,000","975,763,000","978,513,000","985,713,000","971,335,000","970,288,000","986,758,000","959,068,000","939,497,000","1,084,461,000","991,450,000","922,586,000","865,067,000","846,780,000","795,308,000","864,011,000","894,758,000","842,173,000","791,297,000","790,416,000","799,189,000","768,518,000","718,696,000","680,754,000","667,455,000","695,855,000","618,743,000","635,239,000","632,652,000","609,150,000","550,339,000","514,143,000","498,291,000","512,006,000","661,417,000","462,873,000","368,336,000","353,331,000","328,121,000","315,102,000","300,907,000","310,063,000","296,407,000","289,850,000","283,407,000","271,365,000","248,137,000","251,997,000","241,319,000","195,482,000","180,743,000","180,729,000","171,115,000","163,855,000","158,064,000","150,890,000","59,180,000","53,793,000","52,018,000","53,760,000","53,522,000","56,167,000","59,956,000","56,546,000","51,133,000","64,507,000","66,616,000","62,124,000","46,300,000","34,800,000","47,200,000","56,900,000","72,100,000","69,100,000","81,600,000","108,600,000","122,400,000","107,400,000","113,200,000","122,000,000","100,900,000","166,600,000","194,100,000","219,000,000","217,100,000","238,000,000","256,300,000","279,100,000","194,300,000","208,500,000","214,400,000","226,800,000","237,000,000","243,700,000","266,600,000","288,700,000","310,400,000","336,900,000","8,600,000","9,200,000","9,400,000","9,400,000","9,300,000","6,500,000","3,400,000","6,600,000","9,100,000","7,500,000","46,800,000"
TotalEquityGrossMinorityInterest,"21,540,000,000","22,180,000,000","21,765,000,000","20,881,000,000","20,762,000,000","20,301,887,000","20,148,326,000","20,387,557,000","21,470,675,000","21,640,716,000","21,124,280,000","20,630,276,000","19,903,797,000","19,364,188,000","18,538,470,000","17,452,394,000","16,840,639,000","16,283,273,000","13,922,264,000","13,901,715,000","13,928,231,000","13,981,581,000","11,798,312,000","12,056,701,000","12,405,488,000","12,943,035,000","13,284,223,000","17,427,243,000","17,470,498,000","17,712,582,000","17,719,898,000","16,708,388,000","16,033,314,000","15,418,459,000","14,861,580,000","14,384,626,000","13,756,309,000","13,284,764,000","13,793,470,000","13,355,141,000","12,991,843,000","12,640,904,000","12,493,848,000","12,077,185,000","11,788,379,000","10,231,632,000","10,118,124,000","10,131,019,000","10,164,917,000","9,998,042,000","9,517,740,000","9,259,522,000","9,115,537,000","9,014,497,000","8,919,960,000","7,426,171,000","7,190,521,000","6,990,094,000","6,627,148,000","6,292,589,000","5,845,664,000","5,599,671,000","5,474,233,000","5,148,396,000","4,743,360,000","4,316,292,000","3,851,455,000","3,399,422,000","3,153,642,000","2,945,424,000","2,725,912,000","2,477,931,000","2,315,557,000","2,223,381,000","2,100,447,000","1,981,804,000","1,822,952,000","1,672,395,000","1,665,839,000","1,685,655,000","1,625,114,000","1,642,686,000","1,689,490,000","1,658,586,000","1,532,274,000","1,380,925,000","1,248,324,000","1,163,155,000","1,133,896,000","1,129,600,000","951,700,000","1,310,000,000","1,284,700,000","1,280,300,000","1,275,800,000","1,299,800,000","1,299,400,000","1,281,000,000","1,275,400,000","1,255,000,000","1,250,000,000","1,265,100,000","1,237,000,000","1,214,200,000","1,175,400,000","1,163,700,000","1,159,300,000","1,130,800,000","1,086,100,000","1,043,400,000","1,019,700,000","981,300,000","952,000,000","933,100,000","899,000,000","875,100,000","850,700,000","834,000,000","800,400,000","675,900,000","665,900,000","650,200,000","633,700,000","652,200,000","618,300,000","610,000,000","594,000,000","582,300,000","586,400,000","582,300,000"
	StockholdersEquity,"21,540,000,000","22,180,000,000","21,765,000,000","20,881,000,000","20,762,000,000","20,301,887,000","20,148,326,000","20,387,557,000","21,470,675,000","21,640,716,000","21,124,280,000","20,630,276,000","19,903,797,000","19,364,188,000","18,538,470,000","17,452,394,000","16,840,639,000","16,283,273,000","13,922,264,000","13,901,715,000","13,928,231,000","13,981,581,000","11,798,312,000","12,056,701,000","12,405,488,000","12,943,035,000","13,284,223,000","17,427,243,000","17,470,498,000","17,712,582,000","17,719,898,000","16,708,388,000","16,033,314,000","15,418,459,000","14,861,580,000","14,384,626,000","13,756,309,000","13,284,764,000","13,793,470,000","13,355,141,000","12,991,843,000","12,640,904,000","12,493,848,000","12,077,185,000","11,788,379,000","10,231,632,000","10,118,124,000","10,131,019,000","10,164,917,000","9,998,042,000","9,517,740,000","9,259,522,000","9,115,537,000","9,014,497,000","8,919,960,000","7,426,171,000","7,190,521,000","6,990,094,000","6,627,148,000","6,292,589,000","5,845,664,000","5,599,671,000","5,474,233,000","5,148,396,000","4,743,360,000","4,316,292,000","3,851,455,000","3,399,422,000","3,153,642,000","2,945,424,000","2,725,912,000","2,477,931,000","2,315,557,000","2,223,381,000","2,100,447,000","1,981,804,000","1,822,952,000","1,672,395,000","1,665,839,000","1,685,655,000","1,625,114,000","1,642,686,000","1,689,490,000","1,658,586,000","1,532,274,000","1,380,925,000","1,248,324,000","1,163,155,000","1,133,896,000","1,129,600,000","951,700,000","1,310,000,000","1,284,700,000","1,280,300,000","1,275,800,000","1,299,800,000","1,299,400,000","1,281,000,000","1,275,400,000","1,255,000,000","1,250,000,000","1,265,100,000","1,237,000,000","1,214,200,000","1,175,400,000","1,163,700,000","1,140,300,000","1,130,800,000","1,086,100,000","1,043,400,000","1,019,700,000","981,300,000","952,000,000","933,100,000","899,000,000","875,100,000","850,700,000","834,000,000","800,400,000","675,900,000","665,900,000","650,200,000","633,700,000","652,200,000","618,300,000","610,000,000","594,000,000","582,300,000","586,400,000","582,300,000"
		CapitalStock,"206,000,000","206,000,000","206,000,000","206,000,000","206,000,000","205,837,000","205,837,000","205,824,000","205,824,000","205,822,000","205,821,000","205,809,000","205,807,000","205,804,000","205,803,000","205,796,000","205,793,000","205,788,000","205,786,000","205,777,000","205,776,000","205,770,000","205,514,000","205,510,000","205,506,000","205,502,000","205,503,000","205,496,000","205,492,000","205,492,000","205,488,000","205,482,000","205,471,000","202,732,000","202,731,000","202,726,000","202,724,000","202,720,000","202,713,000","202,702,000","202,700,000","202,693,000","202,691,000","202,687,000","202,685,000","202,542,000","202,540,000","202,535,000","202,531,000","202,526,000","202,524,000","202,505,000","202,503,000","202,498,000","202,498,000","202,495,000","202,495,000","207,472,000","245,530,000","255,446,000","255,414,000","255,382,000","301,735,000","301,676,000","301,616,000","301,557,000","301,498,000","301,439,000","301,380,000","300,073,000","349,976,000","349,872,000","349,767,000","349,663,000","349,559,000","349,454,000","349,350,000","349,246,000","349,141,000","349,037,000","348,933,000","348,829,000","348,724,000","348,620,000","348,516,000","348,411,000","348,307,000","348,412,000","348,385,000","348,400,000","201,200,000","201,600,000",,,,,,,,,,,,,,,,"19,000,000","19,000,000",,,,,,,,,,,,,,,,,,,,,
			PreferredStock,,,,,,,,,,,,,,,,,,,,,,,,,,,,,,,,,,,,,,,,,,,,,,,,,,,,,,,,,,"4,977,000","43,035,000","52,951,000","52,919,000","52,887,000","99,240,000","99,181,000","99,121,000","99,062,000","99,003,000","98,944,000","98,885,000","98,826,000","148,729,000","148,625,000","148,520,000","148,416,000","148,312,000","148,207,000","148,103,000","147,999,000","147,894,000","147,790,000","147,686,000","147,582,000","147,477,000","147,373,000","147,269,000","147,164,000","147,060,000","147,165,000","147,138,000","147,200,000",,,,,,,,,,,,,,,,,,"19,000,000","19,000,000",,,,,,,,,,,,,,,,,,,,,
			CommonStock,"206,000,000","206,000,000","206,000,000","206,000,000","206,000,000","205,837,000","205,837,000","205,824,000","205,824,000","205,822,000","205,821,000","205,809,000","205,807,000","205,804,000","205,803,000","205,796,000","205,793,000","205,788,000","205,786,000","205,777,000","205,776,000","205,770,000","205,514,000","205,510,000","205,506,000","205,502,000","205,503,000","205,496,000","205,492,000","205,492,000","205,488,000","205,482,000","205,471,000","202,732,000","202,731,000","202,726,000","202,724,000","202,720,000","202,713,000","202,702,000","202,700,000","202,693,000","202,691,000","202,687,000","202,685,000","202,542,000","202,540,000","202,535,000","202,531,000","202,526,000","202,524,000","202,505,000","202,503,000","202,498,000","202,498,000","202,495,000","202,495,000","202,495,000","202,495,000","202,495,000","202,495,000","202,495,000","202,495,000","202,495,000","202,495,000","202,495,000","202,495,000","202,495,000","202,495,000","201,247,000","201,247,000","201,247,000","201,247,000","201,247,000","201,247,000","201,247,000","201,247,000","201,247,000","201,247,000","201,247,000","201,247,000","201,247,000","201,247,000","201,247,000","201,247,000","201,247,000","201,247,000","201,247,000","201,247,000","201,200,000","201,200,000","201,600,000",,,,,,,,,,,,,,,,"0","0",,,,,,,,,,,,,,,,,,,,,
			OtherCapitalStock,,,,,,,,,,,,,,,,,,,"0",,,,,,,,,,,,,,,"0",,,,,,,,,,,,,,,,,,,,,,,,,,"202,495,000",,"202,495,000",,,,"202,495,000",,"202,495,000",,,,,"201,247,000","201,247,000","201,247,000",,,,,"201,247,000",,,,,,"201,247,000",,,,,,,,,,,,,,,,,,,,,,,,,,,,,,,,,,,,,,,,,,,,
		AdditionalPaidInCapital,"6,095,000,000","6,087,000,000","6,058,000,000","6,017,000,000","5,979,000,000","5,945,024,000","5,916,213,000","5,886,298,000","5,852,821,000","5,817,475,000","5,769,073,000","5,729,318,000","5,695,197,000","5,658,794,000","5,626,259,000","5,591,643,000","5,569,194,000","5,536,547,000","5,513,631,000","5,485,832,000","5,447,291,000","5,420,385,000","2,992,887,000","2,982,047,000","2,951,861,000","2,923,461,000","2,897,439,000","2,857,588,000","2,819,015,000","2,837,150,000","2,785,716,000","2,728,482,000","2,697,807,000","2,646,879,000","2,614,898,000","2,576,441,000","2,539,578,000","2,500,340,000","2,459,531,000","2,374,122,000","2,328,435,000","2,272,052,000","2,230,600,000","2,181,157,000","2,148,476,000","729,992,000","695,046,000","656,529,000","620,367,000","596,702,000","528,544,000","395,128,000","349,210,000","323,805,000","369,128,000","321,026,000","263,094,000","221,102,000","186,256,000","162,594,000","140,642,000","129,986,000","121,298,000","91,852,000","60,905,000","84,705,000","72,773,000","38,391,000","31,480,000","21,047,000","15,586,000","7,478,000","8,180,000","1,625,000","2,801,000","29,000","1,396,000",,,,,,"4,603,000","10,563,000","9,687,000","4,221,000","1,904,000","3,800,000","2,842,000",,,"401,000,000",,,,,,,,,,,,,,,,,,,,,,,,,,,,,,,,,,,,,,
		RetainedEarnings,"15,283,000,000","15,919,000,000","15,542,000,000","14,689,000,000","14,606,000,000","14,169,969,000","14,051,197,000","14,312,493,000","15,440,142,000","15,648,604,000","15,179,381,000","14,731,609,000","14,050,676,000","13,543,130,000","12,778,104,000","11,714,656,000","11,125,051,000","10,593,533,000","8,259,971,000","8,256,359,000","8,329,951,000","8,398,118,000","8,641,704,000","8,923,666,000","9,308,463,000","9,870,816,000","10,247,349,000","14,414,926,000","14,501,816,000","14,763,098,000","14,410,707,000","13,398,901,000","12,760,895,000","12,168,277,000","11,639,302,000","11,228,011,000","10,619,426,000","10,175,631,000","10,726,811,000","10,417,405,000","10,067,541,000","9,789,345,000","9,711,207,000","9,213,356,000","8,963,475,000","8,870,179,000","8,855,869,000","8,966,181,000","8,945,648,000","8,866,747,000","8,502,940,000","8,535,559,000","8,588,650,000","8,466,143,000","8,038,477,000","6,515,795,000","6,367,524,000","6,156,721,000","5,820,884,000","5,640,660,000","5,356,647,000","5,151,034,000","4,928,453,000","4,645,763,000","4,330,772,000","3,920,483,000","3,468,406,000","3,136,135,000","2,898,126,000","2,706,845,000","2,509,851,000","2,347,446,000","2,212,300,000","2,121,214,000","2,055,248,000","1,946,331,000","1,846,031,000","1,723,948,000","1,687,437,000","1,665,936,000","1,636,121,000","1,668,708,000","1,702,339,000","1,637,758,000","1,508,953,000","1,301,067,000","1,146,381,000","1,036,745,000","965,722,000","930,900,000","904,900,000","854,800,000","838,800,000","838,400,000","833,000,000","831,700,000","823,100,000","800,700,000","762,200,000","735,700,000","715,900,000","697,600,000","667,200,000","640,600,000","597,900,000","576,700,000","550,100,000","522,000,000","478,600,000","453,800,000","416,000,000","379,900,000","325,000,000","325,000,000","260,300,000","260,300,000","231,600,000","213,200,000","177,900,000","161,300,000","150,500,000","132,000,000","113,400,000","103,300,000","100,300,000","92,200,000","75,900,000","62,000,000","69,400,000","62,000,000"
		TreasuryStock,"31,000,000","20,000,000","28,000,000","16,000,000","15,000,000","6,615,000","16,991,000","10,928,000","24,807,000","26,533,000","26,306,000","31,932,000","45,014,000","42,182,000","52,238,000","42,189,000","45,110,000","33,298,000","39,964,000","28,763,000","36,123,000","23,682,000","16,693,000","29,258,000","29,211,000","23,406,000","31,089,000","22,764,000","19,391,000","70,102,000","69,738,000","51,065,000","33,662,000","15,263,000","20,634,000","30,809,000","33,251,000","33,822,000","46,984,000","39,174,000","36,284,000","24,932,000","23,098,000","12,895,000","11,721,000","11,152,000","11,178,000","8,857,000","8,863,000","7,653,000","7,895,000","4,173,000","3,132,000","5,736,000","5,125,000","16,340,000","31,440,000","61,903,000","76,022,000","95,029,000","101,667,000","113,435,000","118,893,000","133,722,000","125,676,000","131,344,000","140,725,000","166,965,000","180,969,000","200,695,000","217,140,000","240,360,000","287,040,000","299,582,000","327,930,000","334,329,000","344,402,000","335,889,000","303,800,000","281,505,000","287,398,000","304,780,000","298,572,000","286,118,000","276,454,000","237,262,000","211,693,000","194,123,000","156,761,000","128,300,000","127,900,000","117,100,000",,,,,,,,,,,,,,,,,,,,,,,,,,,,,,,,,,,,,,
		GainsLossesNotAffectingRetainedEarnings,"-13,000,000","-12,000,000","-13,000,000","-15,000,000","-14,000,000","-12,328,000","-7,930,000","-6,130,000","-3,305,000","-4,652,000","-3,689,000","-4,528,000","-2,869,000","-1,358,000","-19,458,000","-17,512,000","-14,289,000","-19,297,000","-17,160,000","-17,490,000","-18,664,000","-19,010,000","-25,100,000","-25,264,000","-31,131,000","-33,338,000","-34,979,000","-28,003,000","-36,434,000","-23,056,000","387,725,000","426,588,000","402,803,000","415,834,000","425,283,000","408,257,000","427,832,000","439,895,000","451,399,000","400,086,000","429,451,000","401,746,000","372,448,000","492,880,000","485,464,000","440,071,000","375,847,000","314,631,000","405,234,000","339,720,000","291,627,000","130,503,000","-21,694,000","27,787,000","314,982,000","403,195,000","388,848,000","466,702,000","450,500,000","328,918,000","194,628,000","176,704,000","241,640,000","242,827,000","175,743,000","140,891,000","149,503,000","90,422,000","103,625,000","118,154,000","67,639,000","13,495,000","32,350,000","50,461,000","20,769,000","20,319,000","-29,423,000","-64,910,000","-66,939,000","-47,813,000","-72,542,000","-70,071,000","-67,604,000","-52,237,000","-58,428,000","-35,512,000","-36,572,000","-31,679,000","-26,292,000","-21,400,000","-26,600,000","-30,300,000",,,,,,,,,,,,,,,,,,,,,,,,,,,,,,,,,,,,,,
			ForeignCurrencyTranslationAdjustments,,,,,,,,,,,,,,,,,,,,,,,,,,,,,,,,,,,,,,,,,,,,,,,,,,,,,,,,,,,,,,,,,,,,,,,,,,,,,,,,,,,,,,,,"-27,341,000","-21,909,000","-19,800,000","-25,300,000","-26,100,000",,,,,,,,,,,,,,,,,,,,,,,,,,,,,,,,,,,,,,
			OtherEquityAdjustments,,,,,,,,,,,,,,,,,,,,,,,,,,,,,,,,,,,,,,,,,,,,,,,,,,,,,,,,,,,,,,,,,,,,,,,,,,,,,,,,,,,,,,,,"-4,338,000","-4,383,000","-1,600,000","-1,300,000","-4,200,000",,,,,,,,,,,,,,,,,,,,,,,,,,,,,,,,,,,,,,
		OtherEquityInterest,,,,,,,,,,,,,,,,,,,,,,,,,,,,,,,,,,,,,,,,,,,,,,,,,,,,,,,,,,,,,,,,,,,,,,,,,,,,,,,,,,,,,,,"-3,000",,,,"100,000",,"445,900,000","441,900,000","442,800,000","468,100,000","476,300,000","480,300,000","513,200,000","519,300,000","534,100,000","567,500,000","569,800,000","573,600,000","577,500,000","587,000,000","590,200,000","589,800,000","588,500,000","589,600,000","603,700,000","601,400,000","627,000,000","608,100,000","638,700,000","614,800,000","619,100,000","620,800,000","622,500,000","514,600,000","515,400,000","518,200,000","520,300,000","548,900,000","518,000,000","517,800,000","518,100,000","520,300,000","517,000,000","520,300,000"
	MinorityInterest,,,,,,,,,,,,,,,,,,,,,,,,,,,,,,,,,,,,,,,,,,,,,,,,,,,,,,,,,,,,,,,,,,,,,,,,,,,,,,,,,,,,,,,,,,,,,,,,,,,,,,,,,,,"19,000,000",,,,,,,,,,,,,,,,,,,,,,,
TotalCapitalization,"25,356,000,000","27,039,000,000","26,844,000,000","25,967,000,000","25,856,000,000","25,337,238,000","25,098,228,000","26,090,698,000","26,173,827,000","25,801,635,000","25,287,395,000","24,795,560,000","25,069,847,000","24,534,357,000","23,710,419,000","22,624,651,000","22,912,243,000","22,314,109,000","20,302,691,000","20,282,065,000","20,908,239,000","20,961,360,000","18,777,850,000","19,035,987,000","19,384,517,000","19,596,720,000","19,678,154,000","23,821,128,000","23,864,188,000","23,615,936,000","23,623,130,000","22,611,487,000","21,936,266,000","21,325,101,000","20,768,074,000","20,290,836,000","19,662,226,000","19,190,366,000","20,098,747,000","18,367,034,000","18,002,366,000","17,650,070,000","17,501,594,000","17,083,436,000","16,793,104,000","15,234,973,000","13,886,762,000","13,865,086,000","12,924,917,000","12,758,042,000","12,277,740,000","12,019,522,000","11,220,637,000","10,874,497,000","10,779,960,000","8,573,171,000","8,375,521,000","8,175,094,000","7,812,148,000","7,176,431,000","6,665,706,000","6,333,113,000","6,179,675,000","5,916,838,000","5,552,027,000","5,175,284,000","4,894,227,000","4,516,519,000","4,273,439,000","4,023,046,000","3,788,884,000","3,563,753,000","3,401,379,000","3,332,253,000","3,111,269,000","2,992,626,000","2,867,160,000","2,817,527,000","2,756,707,000","2,721,498,000","2,600,776,000","2,498,655,000","2,390,512,000","2,299,408,000","2,177,145,000","2,239,925,000","2,193,491,000","2,112,705,000","2,074,816,000","2,119,900,000","2,116,900,000","2,449,900,000","2,455,200,000","2,423,100,000","2,350,200,000","2,150,700,000","2,098,600,000","2,022,300,000","1,954,000,000","1,888,600,000","1,768,100,000","1,731,200,000","1,537,700,000","1,502,800,000","1,493,800,000","1,452,800,000","1,404,200,000","1,344,700,000","1,284,300,000","1,233,700,000","1,203,600,000","1,157,300,000","1,105,000,000","1,086,100,000","1,049,000,000","1,025,100,000","1,000,700,000","984,000,000","960,300,000","1,102,600,000","1,084,200,000","1,072,600,000","1,030,100,000","1,034,800,000","1,031,400,000","1,028,400,000","1,002,700,000","1,032,400,000","980,200,000","942,300,000"
PreferredStockEquity,,,,,,,,,,,,,,,,,,,,,,,,,,,,,,,,,,,,,,,,,,,,,,,,,,,,,,,,,,"4,977,000","43,035,000","52,951,000","52,919,000","52,887,000","99,240,000","99,181,000","99,121,000","99,062,000","99,003,000","98,944,000","98,885,000","98,826,000","148,729,000","148,625,000","148,520,000","148,416,000","148,312,000","148,207,000","148,103,000","147,999,000","147,894,000","147,790,000","147,686,000","147,582,000","147,477,000","147,373,000","147,269,000","147,164,000","147,060,000","147,165,000","147,138,000","147,200,000",,,,,,,,,,,,,,,,,,"19,000,000","19,000,000",,,,,,,,,,,,,,,,,,,,,
CommonStockEquity,"21,540,000,000","22,180,000,000","21,765,000,000","20,881,000,000","20,762,000,000","20,301,887,000","20,148,326,000","20,387,557,000","21,470,675,000","21,640,716,000","21,124,280,000","20,630,276,000","19,903,797,000","19,364,188,000","18,538,470,000","17,452,394,000","16,840,639,000","16,283,273,000","13,922,264,000","13,901,715,000","13,928,231,000","13,981,581,000","11,798,312,000","12,056,701,000","12,405,488,000","12,943,035,000","13,284,223,000","17,427,243,000","17,470,498,000","17,712,582,000","17,719,898,000","16,708,388,000","16,033,314,000","15,418,459,000","14,861,580,000","14,384,626,000","13,756,309,000","13,284,764,000","13,793,470,000","13,355,141,000","12,991,843,000","12,640,904,000","12,493,848,000","12,077,185,000","11,788,379,000","10,231,632,000","10,118,124,000","10,131,019,000","10,164,917,000","9,998,042,000","9,517,740,000","9,259,522,000","9,115,537,000","9,014,497,000","8,919,960,000","7,426,171,000","7,190,521,000","6,985,117,000","6,584,113,000","6,239,638,000","5,792,745,000","5,546,784,000","5,374,993,000","5,049,215,000","4,644,239,000","4,217,230,000","3,752,452,000","3,300,478,000","3,054,757,000","2,846,598,000","2,577,183,000","2,329,306,000","2,167,037,000","2,074,965,000","1,952,135,000","1,833,597,000","1,674,849,000","1,524,396,000","1,517,945,000","1,537,865,000","1,477,428,000","1,495,104,000","1,542,013,000","1,511,213,000","1,385,005,000","1,233,761,000","1,101,264,000","1,015,990,000","986,758,000","982,400,000","951,700,000","1,310,000,000","1,284,700,000","1,280,300,000","1,275,800,000","1,299,800,000","1,299,400,000","1,281,000,000","1,275,400,000","1,255,000,000","1,250,000,000","1,265,100,000","1,237,000,000","1,214,200,000","1,175,400,000","1,163,700,000","1,140,300,000","1,111,800,000","1,067,100,000","1,043,400,000","1,019,700,000","981,300,000","952,000,000","933,100,000","899,000,000","875,100,000","850,700,000","834,000,000","800,400,000","675,900,000","665,900,000","650,200,000","633,700,000","652,200,000","618,300,000","610,000,000","594,000,000","582,300,000","586,400,000","582,300,000"
CapitalLeaseObligations,"223,000,000","1,048,000,000","250,000,000","253,000,000","269,000,000","295,089,000","255,357,000","252,642,000","322,367,000","369,365,000","384,348,000","396,547,000","396,294,000",,,,,,,,,,,,,,,,,,,,,,,,,,,,,,,,,,,,,,,,,,,,,,,,,,,,,,,,,,,,,,,,,,,,,,,,,,,,,,,,,,,,,,,,,,,,,,,,,,,,,,,,,,,,,,,,,,,,,
NetTangibleAssets,"21,540,000,000","22,180,000,000","21,765,000,000","20,881,000,000","20,762,000,000","20,301,887,000","20,148,326,000","20,387,557,000","21,470,675,000","21,640,716,000","21,124,280,000","20,630,276,000","19,903,797,000","19,364,188,000","18,538,470,000","17,452,394,000","16,840,639,000","16,283,273,000","13,922,264,000","13,901,715,000","13,928,231,000","13,981,581,000","11,798,312,000","12,056,701,000","12,405,488,000","12,943,035,000","13,284,223,000","17,427,243,000","17,470,498,000","17,712,582,000","17,719,898,000","16,708,388,000","16,033,314,000","15,418,459,000","14,861,580,000","14,384,626,000","13,756,309,000","13,284,764,000","13,793,470,000","13,355,141,000","12,991,843,000","12,640,904,000","12,493,848,000","12,077,185,000","11,788,379,000","10,231,632,000","10,118,124,000","10,131,019,000","10,164,917,000","9,998,042,000","9,517,740,000","9,259,522,000","9,115,537,000","9,014,497,000","8,919,960,000","7,426,171,000","7,190,521,000","6,990,094,000","6,627,148,000","6,292,589,000","5,845,664,000","5,599,671,000","5,474,233,000","5,148,396,000","4,743,360,000","4,316,292,000","3,851,455,000","3,399,422,000","3,153,642,000","2,945,424,000","2,725,912,000","2,477,931,000","2,315,557,000","2,223,381,000","2,100,447,000","1,981,804,000","1,822,952,000","1,672,395,000","1,665,839,000","1,685,655,000","1,625,114,000","1,642,686,000","1,689,490,000","1,658,586,000","1,532,274,000","1,380,925,000","1,248,324,000","1,163,155,000","1,133,896,000","1,129,600,000","951,700,000","1,310,000,000","1,284,700,000","1,280,300,000","1,275,800,000","1,299,800,000","1,299,400,000","1,281,000,000","1,275,400,000","1,255,000,000","1,250,000,000","1,265,100,000","1,237,000,000","1,214,200,000","1,175,400,000","1,163,700,000","1,140,300,000","1,130,800,000","1,086,100,000","1,043,400,000","1,019,700,000","981,300,000","952,000,000","933,100,000","899,000,000","875,100,000","850,700,000","834,000,000","800,400,000","675,900,000","665,900,000","650,200,000","633,700,000","652,200,000","618,300,000","610,000,000","594,000,000","582,300,000","586,400,000","582,300,000"
WorkingCapital,"2,215,000,000","4,542,000,000","3,865,000,000","2,933,000,000","2,879,000,000","2,402,064,000","2,075,015,000","2,443,010,000","2,186,038,000","786,351,000","346,018,000","81,464,000","606,617,000","1,329,026,000","391,945,000","-65,449,000","748,339,000","553,566,000","583,939,000","661,119,000","1,362,069,000","1,527,312,000","1,004,801,000","737,860,000","817,840,000","772,957,000","777,997,000","1,460,137,000","1,698,616,000","2,031,713,000","1,505,970,000","1,187,258,000","1,426,834,000","1,210,299,000","844,634,000","1,220,537,000","1,006,327,000","665,826,000","1,421,779,000","268,118,000","269,686,000","731,619,000","1,069,039,000","1,161,712,000","1,097,412,000","307,347,000","-403,855,000","358,006,000","52,848,000","493,981,000","630,538,000","1,020,656,000","526,442,000","343,535,000","643,437,000","-356,943,000","-34,672,000","-182,131,000","-31,328,000","-94,764,000","29,560,000","95,068,000","324,033,000","516,193,000","597,233,000","391,197,000","370,754,000","261,733,000","169,279,000","-45,401,000","33,251,000","44,360,000","10,820,000","-80,505,000","204,048,000","229,661,000","163,922,000","118,441,000","44,597,000","42,254,000","4,578,000","-38,426,000","-46,306,000","-11,341,000","-47,166,000","24,749,000","41,387,000","59,249,000","1,377,000","-18,100,000","-9,700,000","25,800,000","6,100,000","-16,200,000","-33,200,000","5,900,000","38,100,000","-9,000,000","43,900,000","51,000,000","8,000,000","8,500,000","16,000,000","86,400,000","87,000,000","48,500,000","35,000,000","54,600,000","45,000,000","-8,200,000","55,300,000","50,500,000","30,100,000","31,500,000","74,000,000","11,900,000","22,200,000","52,300,000","163,700,000","9,400,000","8,900,000","-3,600,000","-33,000,000","-13,500,000","-3,400,000","1,000,000","700,000","9,500,000","20,100,000","31,000,000"
InvestedCapital,"26,639,000,000","27,039,000,000","26,882,000,000","26,006,000,000","25,895,000,000","26,118,292,000","25,869,059,000","26,111,819,000","26,692,844,000","26,816,159,000","26,301,595,000","25,809,436,000","25,984,708,000","25,447,450,000","24,973,293,000","23,887,191,000","23,275,398,000","22,670,344,000","20,309,270,000","20,888,519,000","20,914,818,000","20,967,939,000","18,784,429,000","19,042,566,000","19,391,096,000","19,603,299,000","19,714,433,000","23,827,707,000","24,370,767,000","23,622,515,000","23,629,709,000","22,618,066,000","21,942,845,000","21,331,680,000","21,174,653,000","20,697,415,000","20,068,805,000","19,596,945,000","20,098,747,000","18,367,034,000","18,002,366,000","17,650,070,000","17,721,594,000","17,303,436,000","17,013,104,000","15,454,973,000","13,886,762,000","13,865,086,000","12,961,917,000","12,795,042,000","12,314,740,000","12,056,522,000","11,220,637,000","10,911,497,000","10,816,960,000","8,573,171,000","8,375,521,000","8,170,117,000","7,867,555,000","7,123,480,000","6,612,787,000","6,280,226,000","6,204,510,000","5,941,732,000","5,576,981,000","5,202,297,000","4,795,224,000","4,417,575,000","4,174,554,000","3,924,220,000","3,640,155,000","3,415,128,000","3,252,859,000","3,183,837,000","2,962,957,000","2,844,419,000","2,719,057,000","2,669,528,000","2,608,813,000","2,573,708,000","2,453,090,000","2,351,073,000","2,243,035,000","2,152,035,000","2,029,876,000","2,092,761,000","2,046,431,000","1,965,540,000","1,927,678,000","1,972,700,000","2,116,900,000","2,449,900,000","2,455,200,000","2,423,100,000","2,350,200,000","2,150,700,000","2,098,600,000","2,022,300,000","1,954,000,000","1,888,600,000","1,768,100,000","1,731,200,000","1,537,700,000","1,502,800,000","1,493,800,000","1,452,800,000","1,404,200,000","1,327,500,000","1,267,100,000","1,235,400,000","1,203,600,000","1,157,300,000","1,105,000,000","1,116,100,000","1,049,000,000","1,025,100,000","1,000,700,000","984,000,000","960,300,000","1,102,600,000","1,084,200,000","1,072,600,000","1,030,100,000","1,034,800,000","1,031,400,000","1,028,400,000","1,002,700,000","1,032,400,000","980,200,000","942,300,000"
TangibleBookValue,"21,540,000,000","22,180,000,000","21,765,000,000","20,881,000,000","20,762,000,000","20,301,887,000","20,148,326,000","20,387,557,000","21,470,675,000","21,640,716,000","21,124,280,000","20,630,276,000","19,903,797,000","19,364,188,000","18,538,470,000","17,452,394,000","16,840,639,000","16,283,273,000","13,922,264,000","13,901,715,000","13,928,231,000","13,981,581,000","11,798,312,000","12,056,701,000","12,405,488,000","12,943,035,000","13,284,223,000","17,427,243,000","17,470,498,000","17,712,582,000","17,719,898,000","16,708,388,000","16,033,314,000","15,418,459,000","14,861,580,000","14,384,626,000","13,756,309,000","13,284,764,000","13,793,470,000","13,355,141,000","12,991,843,000","12,640,904,000","12,493,848,000","12,077,185,000","11,788,379,000","10,231,632,000","10,118,124,000","10,131,019,000","10,164,917,000","9,998,042,000","9,517,740,000","9,259,522,000","9,115,537,000","9,014,497,000","8,919,960,000","7,426,171,000","7,190,521,000","6,985,117,000","6,584,113,000","6,239,638,000","5,792,745,000","5,546,784,000","5,374,993,000","5,049,215,000","4,644,239,000","4,217,230,000","3,752,452,000","3,300,478,000","3,054,757,000","2,846,598,000","2,577,183,000","2,329,306,000","2,167,037,000","2,074,965,000","1,952,135,000","1,833,597,000","1,674,849,000","1,524,396,000","1,517,945,000","1,537,865,000","1,477,428,000","1,495,104,000","1,542,013,000","1,511,213,000","1,385,005,000","1,233,761,000","1,101,264,000","1,015,990,000","986,758,000","982,400,000","951,700,000","1,310,000,000","1,284,700,000","1,280,300,000","1,275,800,000","1,299,800,000","1,299,400,000","1,281,000,000","1,275,400,000","1,255,000,000","1,250,000,000","1,265,100,000","1,237,000,000","1,214,200,000","1,175,400,000","1,163,700,000","1,140,300,000","1,111,800,000","1,067,100,000","1,043,400,000","1,019,700,000","981,300,000","952,000,000","933,100,000","899,000,000","875,100,000","850,700,000","834,000,000","800,400,000","675,900,000","665,900,000","650,200,000","633,700,000","652,200,000","618,300,000","610,000,000","594,000,000","582,300,000","586,400,000","582,300,000"
TotalDebt,"5,322,000,000","5,907,000,000","5,367,000,000","5,378,000,000","5,402,000,000","6,111,494,000","5,976,090,000","5,976,904,000","5,544,536,000","5,544,808,000","5,561,663,000","5,575,707,000","6,477,205,000","6,083,262,000","6,434,823,000","6,434,797,000","6,434,759,000","6,387,071,000","6,387,006,000","6,986,804,000","6,986,587,000","6,986,358,000","6,986,117,000","6,985,865,000","6,985,608,000","6,660,264,000","6,430,210,000","6,400,464,000","6,900,269,000","5,909,933,000","5,909,811,000","5,909,678,000","5,909,531,000","5,913,221,000","6,313,073,000","6,312,789,000","6,312,496,000","6,312,181,000","6,305,277,000","5,011,893,000","5,010,523,000","5,009,166,000","5,227,746,000","5,226,251,000","5,224,725,000","5,223,341,000","3,768,638,000","3,734,067,000","2,797,000,000","2,797,000,000","2,797,000,000","2,797,000,000","2,105,100,000","1,897,000,000","1,897,000,000","1,147,000,000","1,185,000,000","1,185,000,000","1,283,442,000","883,842,000","820,042,000","733,442,000","829,517,000","892,517,000","932,742,000","985,067,000","1,042,772,000","1,117,097,000","1,119,797,000","1,077,622,000","1,062,972,000","1,085,822,000","1,085,822,000","1,108,872,000","1,010,822,000","1,010,822,000","1,044,208,000","1,145,132,000","1,090,868,000","1,035,843,000","975,662,000","855,969,000","701,022,000","640,822,000","644,871,000","859,000,000","945,167,000","949,550,000","940,920,000","990,300,000","1,165,200,000","1,139,900,000","1,170,500,000","1,142,800,000","1,074,400,000","850,900,000","799,200,000","741,300,000","678,600,000","633,600,000","518,100,000","466,100,000","300,700,000","288,600,000","318,400,000","289,100,000","263,900,000","215,700,000","200,000,000","192,000,000","183,900,000","176,000,000","153,000,000","183,000,000","150,000,000","150,000,000","150,000,000","150,000,000","159,900,000","426,700,000","418,300,000","422,400,000","396,400,000","382,600,000","413,100,000","418,400,000","408,700,000","450,100,000","393,800,000","360,000,000"
NetDebt,"1,090,000,000",,"824,000,000","1,245,000,000","1,745,000,000","2,487,477,000","2,655,177,000","3,307,761,000","2,315,317,000","3,147,471,000","3,594,210,000","4,018,675,000","4,945,101,000","4,527,628,000","5,160,691,000","5,426,582,000","5,618,665,000","5,552,843,000","5,540,868,000","5,337,361,000","5,440,021,000","5,386,463,000","5,937,390,000","6,206,143,000","6,317,127,000","5,941,758,000","5,687,521,000","5,033,069,000","4,772,850,000","3,822,720,000","4,428,666,000","4,679,538,000","4,242,319,000","4,595,012,000","4,994,256,000","5,084,773,000","5,204,462,000","5,435,746,000","5,192,654,000","4,731,519,000","4,716,459,000","4,393,440,000","3,841,018,000","3,648,813,000","3,556,440,000","4,434,488,000","3,740,806,000","3,083,953,000","2,566,916,000","2,111,249,000","2,188,489,000","2,090,036,000","2,019,886,000","1,565,689,000","1,011,023,000","1,038,899,000","980,062,000","1,130,769,000","981,498,000","825,308,000","678,342,000","515,187,000","233,586,000","133,409,000","111,415,000","341,256,000","701,711,000","834,396,000","946,412,000","1,056,642,000","981,064,000","1,017,983,000","990,105,000","1,104,429,000","826,333,000","859,855,000","1,037,375,000","1,135,284,000","1,083,086,000","1,026,637,000","970,259,000","853,457,000","689,678,000","572,528,000","614,022,000","838,848,000","928,460,000","937,836,000","907,562,000","965,500,000","1,146,400,000","1,128,500,000","1,157,400,000","1,136,500,000","1,065,200,000","837,300,000","794,100,000","732,000,000","672,500,000","617,100,000","514,500,000","458,500,000","291,000,000","250,500,000","291,900,000","266,100,000","255,400,000","195,300,000","184,700,000","186,200,000","97,100,000","90,300,000","95,800,000","79,900,000","33,200,000","107,900,000","110,100,000","17,400,000",,"415,100,000","401,000,000","418,600,000","391,000,000","379,200,000","400,300,000","414,800,000","373,400,000","441,300,000","370,000,000","344,700,000"
ShareIssued,"585,944,344","585,521,512","585,361,866","584,102,233","583,843,561","583,694,850","583,668,294","582,386,619","582,356,329","582,213,016","582,066,483","580,931,822","580,740,395","580,408,117","580,308,937","579,597,990","579,272,616","578,827,768","578,570,621","577,711,399","577,636,588","576,950,272","551,425,785","551,004,831","550,576,063","550,150,823","550,052,879","549,401,647","549,032,089","549,028,374","548,601,616","547,951,875","546,892,340","546,378,440","546,123,790","545,223,696","544,732,574","543,916,990","542,646,972","540,453,198","539,935,154","538,646,168","538,249,518","537,397,926","537,081,014","508,447,042","507,971,360","507,034,470","506,241,262","505,254,354","504,714,358","501,057,020","500,682,256","499,415,128","499,161,306","497,585,228","496,168,738","493,049,374","491,982,688","489,627,832","489,192,080","487,470,082","486,902,296","485,196,162","485,191,532","484,148,276","483,087,640","479,815,662","478,190,520","475,709,776","473,464,720","470,741,800","465,110,100","463,641,600","460,263,512","459,505,112","458,315,856","458,881,040","462,082,972","464,640,184","463,924,000","461,806,472","462,390,380","464,954,280","464,954,280","467,617,168","466,857,352","466,448,000","468,844,000","476,420,000","476,644,000","615,580,000","614,948,000","614,896,000","614,852,000","619,200,000","619,200,000","620,256,000","628,508,000","629,708,000","632,872,000","639,028,000","639,400,000","639,640,000","639,908,000","639,400,000","639,540,000","639,800,000","639,940,000","603,308,000","638,964,000","639,452,000","639,200,000","639,360,000","640,000,000","640,000,000","640,000,000","640,000,000","607,200,000","607,200,000","607,200,000","607,200,000","607,200,000","607,200,000","607,200,000","607,200,000","607,200,000","607,200,000","607,200,000","607,200,000"
OrdinarySharesNumber,"585,653,872","585,264,244","584,990,617","583,859,175","583,611,312","583,570,585","583,345,703","582,244,594","582,037,167","581,914,196","581,776,580","580,625,881","580,314,758","580,023,075","579,830,895","579,187,021","578,812,626","578,476,807","578,141,197","577,395,060","577,258,146","576,700,117","551,228,604","550,628,962","550,192,454","549,858,644","549,669,009","549,145,546","548,824,085","548,294,857","547,899,830","547,436,796","546,495,434","546,171,610","545,838,856","544,669,148","544,116,554","543,264,462","541,699,724","539,613,896","539,161,498","538,038,902","537,686,328","537,111,308","536,838,744","508,154,670","507,680,134","506,789,940","506,003,468","505,017,304","504,585,460","500,904,462","500,557,452","499,161,306","499,161,306","497,585,228","496,168,738","493,049,374","491,982,688","489,627,832","489,192,080","487,470,082","486,902,296","485,196,162","485,191,532","484,148,276","483,087,640","479,815,662","478,190,520","475,709,776","473,464,720","470,741,800","465,110,100","463,641,600","460,263,512","459,505,112","458,315,856","458,881,040","462,082,972","464,640,184","463,924,000","461,806,472","462,390,380","464,954,280","464,954,280","467,617,168","466,857,352","466,448,000","468,844,000","476,420,000","476,644,000","615,580,000","614,948,000","614,896,000","614,852,000","619,200,000","619,200,000","620,256,000","628,508,000","629,708,000","632,872,000","639,028,000","639,400,000","639,640,000","639,908,000","639,400,000","639,540,000","639,800,000","639,940,000","603,308,000","638,964,000","639,452,000","639,200,000","639,360,000","640,000,000","640,000,000","640,000,000","640,000,000","607,200,000","607,200,000","607,200,000","607,200,000","607,200,000","607,200,000","607,200,000","607,200,000","607,200,000","607,200,000","607,200,000","607,200,000"
TreasurySharesNumber,"290,472","257,268","371,249","243,058","232,249","124,265","322,591","142,025","319,162","298,820","289,903","305,941","425,637","385,042","478,042","410,969","459,990","350,961","429,424","316,339","378,442","250,155","197,181","375,869","383,609","292,179","383,870","256,101","208,004","733,517","701,786","515,079","396,906","206,830","284,934","554,548","616,020","652,528","947,248","839,302","773,656","607,266","563,190","286,618","242,270","292,372","291,226","244,530","237,794","237,050","128,898","152,558","124,804","253,822",,,,,,,,,,,,,,,,,,,,,,,,,,,,,,,,,,,,,,,,,,,,,,,,,,,,,,,,,,,,,,,,,,,,,,,,,,,,