name,03/31/2022,12/31/2021,09/30/2021,06/30/2021,03/31/2021,12/31/2020,09/30/2020,06/30/2020,03/31/2020,12/31/2019,09/30/2019,06/30/2019,03/31/2019,12/31/2018,09/30/2018,06/30/2018,03/31/2018,12/31/2017,09/30/2017,06/30/2017,03/31/2017,12/31/2016,09/30/2016,06/30/2016,03/31/2016,12/31/2015,09/30/2015,06/30/2015,03/31/2015,12/31/2014,09/30/2014,06/30/2014,03/31/2014,12/31/2013,09/30/2013,06/30/2013,03/31/2013,12/31/2012,09/30/2012,06/30/2012,03/31/2012,12/31/2011,09/30/2011,06/30/2011,03/31/2011,12/31/2010,09/30/2010,06/30/2010,03/31/2010,12/31/2009,09/30/2009,06/30/2009,03/31/2009,12/31/2008,09/30/2008,06/30/2008,03/31/2008,12/31/2007,09/30/2007,06/30/2007,03/31/2007,12/31/2006,09/30/2006,06/30/2006,03/31/2006,12/31/2005,09/30/2005,06/30/2005,03/31/2005,12/31/2004,09/30/2004,06/30/2004,03/31/2004,12/31/2003,09/30/2003,06/30/2003,03/31/2003,12/31/2002,09/30/2002,06/30/2002,03/31/2002,12/31/2001,09/30/2001,06/30/2001,03/31/2001,12/31/2000,09/30/2000,06/30/2000,03/31/2000,12/31/1999,09/30/1999,06/30/1999,03/31/1999,12/31/1998,09/30/1998,06/30/1998,03/31/1998,12/31/1997,09/30/1997,06/30/1997,03/31/1997,12/31/1996,09/30/1996,06/30/1996,03/31/1996,12/31/1995,09/30/1995,06/30/1995,03/31/1995,12/31/1994,09/30/1994,06/30/1994,03/31/1994,12/31/1993,09/30/1993,06/30/1993,03/31/1993,12/31/1992,09/30/1992,06/30/1992,03/31/1992,12/31/1991,09/30/1991,06/30/1991,03/31/1991,12/31/1990,09/30/1990,06/30/1990,03/31/1990,12/31/1989,09/30/1989,12/31/1988,12/31/1987,12/31/1986,12/31/1985
TotalAssets,"21,888,000,000","21,351,000,000","21,883,000,000","22,353,000,000","20,139,000,000","19,556,000,000","18,300,000,000","18,170,000,000","18,064,000,000","17,708,000,000","18,064,000,000","17,955,000,000","17,371,000,000","16,015,000,000","16,718,000,000","16,794,000,000","17,544,000,000","16,538,000,000","17,615,000,000","16,977,000,000","16,154,000,000","15,769,000,000","16,490,000,000","17,248,000,000","17,315,000,000","17,076,000,000","17,574,000,000","17,596,000,000","17,368,000,000","17,583,000,000","17,087,000,000","17,300,000,000","17,117,000,000","15,863,000,000","16,638,000,000","16,066,000,000","15,376,000,000","15,878,000,000","15,606,000,000","14,817,000,000","14,834,000,000","14,382,000,000","14,543,000,000","15,267,000,000","15,103,000,000","14,975,000,000","14,120,000,000","13,366,000,000","13,756,000,000","14,240,000,000","14,569,000,000","14,565,000,000","13,603,000,000","14,698,000,000","15,046,000,000","16,207,000,000","15,899,000,000","12,629,000,000","10,907,000,000","10,684,000,000","10,345,000,000","10,021,000,000","9,773,000,000","9,502,000,000","8,918,000,000","8,681,000,000","8,794,000,000","8,790,000,000","9,022,000,000","8,932,000,000","8,599,000,000","8,648,000,000","8,607,000,000","8,424,000,000","8,304,000,000","8,326,000,000","8,051,000,000","7,863,000,000","8,582,000,000","8,753,000,000","8,487,000,000","8,452,000,000","8,828,000,000","8,952,000,000","9,061,000,000","9,125,000,000","9,029,000,000","9,101,000,000","9,072,000,000","8,914,000,000","8,750,000,000","7,513,000,000","7,435,000,000","7,387,000,000","7,133,000,000","7,224,000,000","7,106,000,000","6,868,000,000","6,538,000,000","6,566,000,000","6,553,200,000","6,441,400,000","6,425,700,000","6,501,600,000","6,346,900,000","6,194,300,000","6,188,400,000","6,177,400,000","6,148,000,000","5,893,900,000","5,866,500,000","5,824,900,000","5,902,200,000","5,651,500,000","5,768,000,000","5,842,300,000","5,995,000,000","5,661,700,000","6,039,000,000","6,084,300,000","5,994,800,000","6,056,200,000","5,984,200,000","5,969,700,000","6,028,600,000","6,108,200,000","6,028,200,000","5,837,600,000","5,745,800,000","5,645,400,000","5,305,700,000","5,154,100,000","4,987,900,000","4,641,400,000","4,083,800,000"
	CurrentAssets,"7,627,000,000","6,774,000,000","7,300,000,000","7,446,000,000","7,339,000,000","6,798,000,000","7,002,000,000","7,077,000,000","7,066,000,000","6,170,000,000","6,817,000,000","6,707,000,000","6,409,000,000","5,961,000,000","6,741,000,000","6,879,000,000","7,110,000,000","6,477,000,000","7,638,000,000","7,145,000,000","6,646,000,000","6,452,000,000","6,417,000,000","7,107,000,000","6,718,000,000","6,554,000,000","7,292,000,000","7,374,000,000","7,084,000,000","6,850,000,000","8,898,000,000","9,035,000,000","8,888,000,000","7,214,000,000","8,120,000,000","7,710,000,000","7,726,000,000","7,715,000,000","7,777,000,000","7,151,000,000","6,944,000,000","6,694,000,000","6,940,000,000","7,239,000,000","7,084,000,000","7,058,000,000","6,305,000,000","5,886,000,000","5,922,000,000","5,981,000,000","6,248,000,000","6,422,000,000","5,770,000,000","6,348,000,000","6,579,000,000","7,091,000,000","6,949,000,000","7,136,000,000","5,416,000,000","4,951,000,000","4,729,000,000","4,592,000,000","4,547,000,000","4,517,000,000","4,174,000,000","4,019,000,000","4,073,000,000","4,057,000,000","4,209,000,000","4,054,000,000","3,831,000,000","3,890,000,000","3,705,000,000","3,537,000,000","3,371,000,000","3,323,000,000","3,095,000,000","2,945,000,000","3,050,000,000","3,094,000,000","2,841,000,000","2,703,000,000","2,984,000,000","3,136,000,000","3,161,000,000","3,093,000,000","3,143,000,000","3,191,000,000","3,177,000,000","3,062,000,000","3,141,000,000","2,779,000,000","2,725,000,000","2,660,000,000","2,716,000,000","2,811,000,000","2,729,000,000","2,584,000,000","2,411,000,000","2,480,000,000","2,467,300,000","2,296,400,000","2,352,000,000","2,452,300,000","2,401,700,000","2,275,500,000","2,374,600,000","2,452,000,000","2,451,100,000","2,168,200,000","2,315,600,000","2,262,900,000","2,283,600,000","2,025,900,000","2,112,700,000","2,135,000,000","2,243,200,000","1,950,800,000","2,209,500,000","2,242,100,000","2,204,100,000","2,173,300,000","2,148,200,000","2,183,800,000","2,188,500,000","2,216,900,000","2,211,400,000","2,213,700,000","2,144,600,000","2,056,300,000","1,933,500,000","1,899,000,000","1,835,600,000","1,615,900,000","1,370,100,000"
		CashCashEquivalentsAndShortTermInvestments,"1,033,000,000","1,072,000,000","1,304,000,000","1,305,000,000","1,928,000,000","1,922,000,000","2,095,000,000","2,297,000,000","1,936,000,000","1,273,000,000","1,490,000,000","1,016,000,000","839,000,000","963,000,000","1,160,000,000","1,083,000,000","1,404,000,000","1,491,000,000","2,328,000,000","1,617,000,000","1,389,000,000","1,863,000,000","975,000,000","1,669,000,000","1,030,000,000","1,455,000,000","1,414,000,000","1,182,000,000","1,170,000,000","1,183,000,000","3,038,000,000","2,913,000,000","3,039,000,000","1,745,000,000","2,249,000,000","1,781,000,000","2,380,000,000","2,393,000,000","2,011,000,000","1,247,000,000","1,034,000,000","1,482,000,000","1,338,000,000","1,245,000,000","1,383,000,000","1,978,000,000","930,000,000","784,000,000","689,000,000","1,057,000,000","898,000,000","1,052,000,000","531,000,000","1,021,000,000","516,000,000","266,000,000","298,000,000","2,232,000,000","227,000,000","197,000,000","182,000,000","455,000,000","316,000,000","419,000,000","416,000,000","466,000,000","489,000,000","470,000,000","677,000,000","709,000,000","561,000,000","583,000,000","466,000,000","499,000,000","283,000,000","153,000,000","77,000,000","117,000,000","163,000,000","136,000,000","72,000,000","108,000,000","159,000,000","118,000,000","78,000,000","111,000,000","135,000,000","144,000,000","145,000,000","158,000,000","164,000,000","96,000,000","82,000,000","128,000,000","264,000,000","151,000,000","141,000,000","129,000,000","90,000,000","105,000,000","109,500,000","69,600,000","104,400,000","121,900,000","89,000,000","105,600,000","118,300,000","100,600,000","73,200,000","62,100,000","165,700,000","52,500,000","116,900,000","111,900,000","61,300,000","53,900,000","89,400,000","61,400,000","80,700,000","85,600,000","72,100,000","37,600,000","55,500,000","61,000,000","63,100,000","59,300,000","4,000,000","47,400,000","33,000,000","64,600,000","31,100,000","103,400,000","82,100,000","66,300,000","24,300,000"
			CashAndCashEquivalents,"960,000,000","1,005,000,000","1,216,000,000","1,195,000,000","1,808,000,000","1,826,000,000","2,008,000,000","2,252,000,000","1,886,000,000","1,216,000,000","1,432,000,000","963,000,000","784,000,000","902,000,000","1,103,000,000","1,020,000,000","1,346,000,000","1,436,000,000","2,287,000,000","1,569,000,000","1,349,000,000","1,820,000,000","929,000,000","1,605,000,000","909,000,000","1,311,000,000","1,015,000,000","707,000,000","735,000,000","686,000,000","2,468,000,000","1,986,000,000","2,559,000,000","1,116,000,000","1,562,000,000","1,243,000,000","2,021,000,000","1,306,000,000","1,392,000,000","1,017,000,000","978,000,000","1,457,000,000","1,301,000,000","982,000,000","796,000,000","1,341,000,000","930,000,000","784,000,000","689,000,000","1,057,000,000","898,000,000","1,052,000,000","531,000,000","1,021,000,000","516,000,000","266,000,000","298,000,000","526,000,000","227,000,000","197,000,000","182,000,000","455,000,000","316,000,000","419,000,000","416,000,000","466,000,000","489,000,000","470,000,000","640,000,000","709,000,000","561,000,000","583,000,000","466,000,000","499,000,000","283,000,000","153,000,000","77,000,000","117,000,000","163,000,000","136,000,000","72,000,000","108,000,000","159,000,000","118,000,000","78,000,000","111,000,000","135,000,000","144,000,000","145,000,000","158,000,000","164,000,000","96,000,000","82,000,000","128,000,000","264,000,000","151,000,000","141,000,000","129,000,000","90,000,000","105,000,000","109,500,000","69,600,000","104,400,000","121,900,000","89,000,000","105,600,000","118,300,000","100,600,000","73,200,000","62,100,000","165,700,000","52,500,000","116,900,000","111,900,000","61,300,000","53,900,000","89,400,000","61,400,000","80,700,000","85,600,000","72,100,000","37,600,000","55,500,000","61,000,000","63,100,000","59,300,000","4,000,000","47,400,000","33,000,000","64,600,000","31,100,000","103,400,000","82,100,000","66,300,000","24,300,000"
			OtherShortTermInvestments,"73,000,000","67,000,000","88,000,000","110,000,000","120,000,000","96,000,000","87,000,000","45,000,000","50,000,000","57,000,000","58,000,000","53,000,000","55,000,000","61,000,000","57,000,000","63,000,000","58,000,000","55,000,000","41,000,000","48,000,000","40,000,000","43,000,000","46,000,000","64,000,000","121,000,000","144,000,000","399,000,000","475,000,000","435,000,000","497,000,000","570,000,000","927,000,000","480,000,000","629,000,000","687,000,000","538,000,000","359,000,000","1,087,000,000","619,000,000","230,000,000","56,000,000","25,000,000","37,000,000","263,000,000","587,000,000","637,000,000",,,,,,,,,,,,"1,706,000,000",,,,,,,,,,,"37,000,000",,,,,,,,,,,,,,,,,,,,,,,,,,,,,,,,,,,,,,,,,,,,,,,,,,,,,,,,,,,,,,,,,,
		Receivables,"3,659,000,000","3,152,000,000","3,382,000,000","3,498,000,000","3,034,000,000","2,726,000,000","2,843,000,000","2,673,000,000","2,804,000,000","2,756,000,000","3,028,000,000","3,332,000,000","3,197,000,000","2,845,000,000","3,217,000,000","3,438,000,000","3,343,000,000","2,903,000,000","3,155,000,000","3,191,000,000","3,057,000,000","2,692,000,000","2,962,000,000","3,108,000,000","3,106,000,000","2,788,000,000","3,062,000,000","3,286,000,000","2,961,000,000","2,815,000,000","2,968,000,000","3,184,000,000","3,016,000,000","2,736,000,000","3,122,000,000","3,223,000,000","2,824,000,000","2,813,000,000","3,190,000,000","3,310,000,000","3,236,000,000","2,830,000,000","3,088,000,000","3,345,000,000","3,126,000,000","2,778,000,000","2,958,000,000","2,781,000,000","2,809,000,000","2,628,000,000","2,853,000,000","2,847,000,000","2,713,000,000","2,804,000,000","3,453,000,000","3,907,000,000","3,433,000,000","2,398,000,000","2,497,000,000","2,583,000,000","2,434,000,000","2,168,000,000","2,240,000,000","2,248,000,000","2,038,000,000","1,871,000,000","1,968,000,000","1,987,000,000","1,920,000,000","1,797,000,000","1,809,000,000","1,845,000,000","1,794,000,000","1,631,000,000","1,689,000,000","1,773,000,000","1,649,000,000","1,486,000,000","1,559,000,000","1,640,000,000","1,533,000,000","1,416,000,000","1,534,000,000","1,637,000,000","1,617,000,000","1,563,000,000","1,652,000,000","1,724,000,000","1,713,000,000","1,594,000,000","1,592,000,000","1,500,000,000","1,438,000,000","1,366,000,000","1,354,000,000","1,509,000,000","1,443,000,000","1,353,000,000","1,301,000,000","1,376,000,000","1,344,800,000","1,225,600,000","1,278,600,000","1,388,800,000","1,339,200,000","1,245,100,000","1,319,800,000","1,402,600,000","1,413,000,000","1,228,900,000","1,229,200,000","1,294,800,000","1,221,400,000","996,700,000","1,106,600,000","1,139,600,000","1,205,100,000","1,023,400,000","1,151,200,000","1,172,600,000","1,148,100,000","1,057,900,000","1,110,400,000","1,161,800,000","1,061,700,000","1,069,300,000","1,178,600,000","1,250,900,000","1,218,400,000","1,107,900,000","1,063,200,000","1,010,000,000","1,037,300,000","896,000,000","764,600,000"
			AccountsReceivable,"3,659,000,000","2,687,000,000","3,382,000,000","3,498,000,000","3,034,000,000","2,412,000,000","2,843,000,000","2,673,000,000","2,804,000,000","2,479,000,000","3,028,000,000","3,332,000,000","3,197,000,000","2,505,000,000","3,217,000,000","3,438,000,000","3,343,000,000","2,559,000,000","3,155,000,000","3,191,000,000","3,057,000,000","2,324,000,000","2,962,000,000","3,108,000,000","3,106,000,000","2,413,000,000","3,062,000,000","3,286,000,000","2,961,000,000","2,366,000,000","2,968,000,000","3,184,000,000","3,016,000,000","2,449,000,000","3,122,000,000","3,223,000,000","2,824,000,000","2,568,000,000","3,190,000,000","3,310,000,000","3,236,000,000",,"3,088,000,000",,,,,,,,,,,,"3,453,000,000","3,907,000,000","3,433,000,000","2,398,000,000","2,497,000,000","2,583,000,000","2,434,000,000","1,976,000,000","2,240,000,000","2,248,000,000","2,038,000,000","1,871,000,000","1,968,000,000","1,987,000,000","1,920,000,000","1,797,000,000","1,809,000,000","1,845,000,000","1,794,000,000","1,631,000,000","1,689,000,000","1,773,000,000","1,649,000,000","1,486,000,000","1,559,000,000","1,640,000,000","1,533,000,000","1,416,000,000","1,534,000,000","1,637,000,000","1,617,000,000","1,563,000,000","1,652,000,000","1,724,000,000","1,713,000,000","1,594,000,000","1,592,000,000","1,500,000,000","1,438,000,000","1,366,000,000","1,354,000,000","1,509,000,000","1,443,000,000","1,353,000,000","1,301,000,000","1,376,000,000","1,344,800,000","1,225,600,000","1,278,600,000","1,388,800,000","1,339,200,000","1,245,100,000","1,319,800,000","1,402,600,000","1,413,000,000","1,228,900,000","1,229,200,000","1,294,800,000","1,221,400,000",,,,,,,,,,,,,,,,,,,,,,
				GrossAccountsReceivable,"3,727,000,000",,"3,418,000,000","3,523,000,000",,"2,456,000,000","2,890,000,000",,"2,854,000,000",,"3,055,000,000","3,358,000,000","3,223,000,000",,"3,242,000,000","3,461,000,000","3,366,000,000",,"3,180,000,000","3,219,000,000","3,090,000,000",,"3,008,000,000","3,159,000,000","3,159,000,000",,"3,117,000,000","3,345,000,000","3,037,000,000",,"3,033,000,000","3,256,000,000","3,089,000,000",,"3,208,000,000","3,304,000,000","2,899,000,000",,"3,268,000,000","3,387,000,000","3,318,000,000",,"3,176,000,000",,,,,,,,,,,,,,,,,,,,,,,,,,,,,,,,,,,,,,,,,,,,,,,,,,,,,,,,,,,,,,,,,,,,,,,,,,,,,,,,,,,,,,,,,,,,
				AllowanceForDoubtfulAccountsReceivable,"-68,000,000",,"-36,000,000","-25,000,000",,"-44,000,000","-47,000,000",,"-50,000,000",,"-27,000,000","-26,000,000","-26,000,000",,"-25,000,000","-23,000,000","-23,000,000",,"-25,000,000","-28,000,000","-33,000,000",,"-46,000,000","-51,000,000","-53,000,000",,"-55,000,000","-59,000,000","-76,000,000",,"-65,000,000","-72,000,000","-73,000,000",,"-86,000,000","-81,000,000","-75,000,000",,"-78,000,000","-77,000,000","-82,000,000",,"-88,000,000",,,,,,,,,,,,,,,,,,,,,,,,,,,,,,,,,,,,,,,,,,,,,,,,,,,,,,,,,,,,,,,,,,,,,,,,,,,,,,,,,,,,,,,,,,,,
			DuefromRelatedPartiesCurrent,,,,,,"2,000,000",,,,"3,000,000",,,,"4,000,000",,,,"5,000,000",,,,"3,000,000",,,,"4,000,000",,,,"10,000,000",,,,"10,000,000",,,,"22,000,000",,,,,,,,,,,,,,,,,,,,,,,,,,,,,,,,,,,,,,,,,,,,,,,,,,,,,,,,,,,,,,,,,,,,,,,,,,,,,,,,,,,,,,,,,,,,,,,,,
			OtherReceivables,,"465,000,000",,,,"312,000,000",,,,"274,000,000",,,,"336,000,000",,,,"339,000,000",,,,"365,000,000",,,,"371,000,000",,,,"439,000,000",,,,"277,000,000",,,,"223,000,000",,,,,,,,,,,,,,,,,,,,,,,,"192,000,000",,,,,,,,,,,,,,,,,,,,,,,,,,,,,,,,,,,,,,,,,,,,,,,,,,,,,,,,,,,,,,,,,,,,,,,,,
		Inventory,"2,439,000,000","2,171,000,000","2,249,000,000","2,226,000,000","1,914,000,000","1,735,000,000","1,672,000,000","1,706,000,000","1,859,000,000","1,710,000,000","1,860,000,000","1,945,000,000","1,965,000,000","1,783,000,000","1,962,000,000","1,956,000,000","1,963,000,000","1,730,000,000","1,805,000,000","1,766,000,000","1,727,000,000","1,546,000,000","1,676,000,000","1,803,000,000","1,863,000,000","1,705,000,000","1,841,000,000","1,861,000,000","1,881,000,000","1,825,000,000","1,905,000,000","1,964,000,000","1,929,000,000","1,824,000,000","1,878,000,000","1,862,000,000","1,698,000,000","1,687,000,000","1,777,000,000","1,775,000,000","1,830,000,000","1,607,000,000","1,737,000,000","1,821,000,000","1,755,000,000","1,573,000,000","1,638,000,000","1,541,000,000","1,599,000,000","1,548,000,000","1,656,000,000","1,672,000,000","1,677,000,000","1,702,000,000","1,818,000,000","2,124,000,000","1,977,000,000","1,368,000,000","1,385,000,000","1,480,000,000","1,459,000,000","1,390,000,000","1,377,000,000","1,273,000,000","1,195,000,000","1,119,000,000","1,116,000,000","1,105,000,000","1,130,000,000","1,076,000,000","1,010,000,000","1,025,000,000","1,044,000,000","997,000,000","990,000,000","1,004,000,000","1,004,000,000","942,000,000","957,000,000","962,000,000","948,000,000","904,000,000","1,006,000,000","1,076,000,000","1,141,000,000","1,121,000,000","1,070,000,000","1,067,000,000","1,067,000,000","1,016,000,000","1,020,000,000","915,000,000","948,000,000","917,000,000","870,000,000","902,000,000","898,000,000","863,000,000","819,000,000","807,000,000","819,600,000","796,500,000","779,100,000","746,600,000","779,800,000","737,500,000","759,900,000","760,400,000","767,300,000","686,400,000","686,800,000","694,500,000","718,200,000","683,300,000","735,900,000","741,600,000","748,700,000","742,300,000","822,600,000","831,800,000","830,500,000","875,300,000","828,100,000","833,100,000","913,600,000","945,100,000","871,500,000","769,100,000","755,600,000","753,700,000","715,000,000","683,100,000","650,700,000","601,600,000","527,600,000"
			RawMaterials,"813,000,000","762,000,000","754,000,000","735,000,000","604,000,000","527,000,000","475,000,000","502,000,000","517,000,000","466,000,000","494,000,000","516,000,000","520,000,000","485,000,000","536,000,000","534,000,000","528,000,000","470,000,000","485,000,000","466,000,000","451,000,000","412,000,000","435,000,000","476,000,000","497,000,000","463,000,000","494,000,000","499,000,000","500,000,000","499,000,000","526,000,000","529,000,000","516,000,000","508,000,000","549,000,000","535,000,000","512,000,000","563,000,000","595,000,000","571,000,000","575,000,000","528,000,000","573,000,000","604,000,000","573,000,000","411,000,000","558,000,000","524,000,000","524,000,000","505,000,000","526,000,000","511,000,000","501,000,000","523,000,000","452,000,000","493,000,000","479,000,000","312,000,000","315,000,000","309,000,000","293,000,000","273,000,000","264,000,000","249,000,000","223,000,000","213,000,000","213,000,000","205,000,000","203,000,000","192,000,000","171,000,000","160,000,000","163,000,000","157,000,000","164,000,000","164,000,000","159,000,000","157,000,000","168,000,000","166,000,000","173,000,000","166,000,000","181,000,000","191,000,000","207,000,000","198,000,000","202,000,000","212,000,000","211,000,000","189,000,000","187,000,000","175,000,000","187,000,000","174,000,000","160,000,000","166,000,000","159,000,000","141,000,000","146,000,000","139,000,000","135,800,000","133,900,000","137,500,000","130,700,000","134,700,000","120,500,000","138,900,000","132,500,000","131,200,000","111,900,000","117,000,000","119,600,000","121,200,000",,,,,,,,,,,,,,,,,,,,,,
			WorkInProcess,"257,000,000","234,000,000","254,000,000","254,000,000","210,000,000","187,000,000","188,000,000","192,000,000","204,000,000","197,000,000","207,000,000","213,000,000","211,000,000","193,000,000","205,000,000","204,000,000","200,000,000","177,000,000","184,000,000","186,000,000","173,000,000","165,000,000","178,000,000","179,000,000","179,000,000","160,000,000","165,000,000","160,000,000","156,000,000","157,000,000","165,000,000","171,000,000","168,000,000","160,000,000","160,000,000","157,000,000","153,000,000","144,000,000","159,000,000","157,000,000","163,000,000","144,000,000","157,000,000","164,000,000","154,000,000","136,000,000","142,000,000","137,000,000","138,000,000","125,000,000","139,000,000","139,000,000","137,000,000","134,000,000","152,000,000","170,000,000","159,000,000","121,000,000","144,000,000","142,000,000","139,000,000","129,000,000","136,000,000","131,000,000","122,000,000","111,000,000","120,000,000","120,000,000","124,000,000","118,000,000","116,000,000","125,000,000","123,000,000","111,000,000","118,000,000","124,000,000","120,000,000","113,000,000",,,,,,,,,,,,,,,,,,,,,,,,,,,,,,,,,,,,,,,,,,,,,,,,,,,,,,,,,
			FinishedGoods,"1,369,000,000","1,175,000,000","1,241,000,000","1,237,000,000","1,100,000,000","1,021,000,000","1,009,000,000","1,012,000,000","1,138,000,000","1,047,000,000","1,159,000,000","1,216,000,000","1,234,000,000","1,105,000,000","1,221,000,000","1,218,000,000","1,235,000,000","1,083,000,000","1,136,000,000","1,114,000,000","1,103,000,000","969,000,000","1,063,000,000","1,148,000,000","1,187,000,000","1,082,000,000","1,182,000,000","1,202,000,000","1,225,000,000","1,169,000,000","1,214,000,000","1,264,000,000","1,245,000,000","1,156,000,000","1,169,000,000","1,170,000,000","1,033,000,000","980,000,000","1,023,000,000","1,047,000,000","1,092,000,000","935,000,000","1,007,000,000","1,053,000,000","1,028,000,000","912,000,000","938,000,000","880,000,000","937,000,000","918,000,000","991,000,000","1,022,000,000","1,039,000,000","1,045,000,000","1,101,000,000","1,313,000,000","1,222,000,000","824,000,000","811,000,000","888,000,000","887,000,000","850,000,000","842,000,000","760,000,000","722,000,000","667,000,000","656,000,000","652,000,000","675,000,000","635,000,000","594,000,000","612,000,000","630,000,000","601,000,000","582,000,000","591,000,000","601,000,000","548,000,000","670,000,000","675,000,000","657,000,000","622,000,000","706,000,000","766,000,000","819,000,000","807,000,000","755,000,000","742,000,000","743,000,000","716,000,000","719,000,000","636,000,000","656,000,000","638,000,000","605,000,000","622,000,000","625,000,000","608,000,000","559,000,000","553,000,000","563,800,000","547,300,000","524,400,000","498,300,000","530,600,000","504,500,000","507,800,000","513,700,000","522,900,000","462,700,000","455,600,000","460,600,000","483,600,000",,,,,,,,,,,,,,,,,,,,,,
			OtherInventories,,,,,,,,,,,,,,,,,,,,,,,,,,,,,,,,,,,,,,,,,,,,,,"114,000,000",,,,,,,,,"113,000,000","148,000,000","117,000,000","111,000,000","115,000,000","141,000,000","140,000,000","138,000,000","135,000,000","133,000,000","128,000,000","128,000,000","127,000,000","128,000,000","128,000,000","131,000,000","129,000,000","128,000,000","128,000,000","128,000,000","126,000,000","125,000,000","124,000,000","124,000,000","119,000,000","121,000,000","118,000,000","116,000,000","119,000,000","119,000,000","115,000,000","116,000,000","113,000,000","113,000,000","113,000,000","111,000,000","114,000,000","104,000,000","105,000,000","105,000,000","105,000,000","114,000,000","114,000,000","114,000,000","114,000,000","115,000,000","120,000,000","115,300,000","117,200,000","117,600,000","114,500,000","112,500,000","113,200,000","114,200,000","113,200,000","111,800,000","114,200,000","114,300,000","113,400,000",,,,,,,,,,,,,,,,,,,,,,
		RestrictedCash,,,,,,,,,,,,,,,,,,,,,,,,,,,,,,,,,,,,,,,,,,,,,,,,,,,,,,"24,000,000","42,000,000","12,000,000","12,000,000",,,,,,,,,,,,,,,,,,,,,,,,,,,,,,,,,,,,,,,,,,,,,,,,,,,,,,,,,,,,,,,,,,,,,,,,,,,,,,
		CurrentDeferredAssets,,,,,,,,,,,,,,,,,,,,,,,,,,"0","386,000,000","394,000,000","373,000,000","406,000,000","421,000,000","430,000,000","433,000,000","425,000,000","424,000,000",,,"430,000,000",,,,"473,000,000",,,,"451,000,000",,,,"485,000,000",,,,"515,000,000",,,,"418,000,000",,,,"394,000,000",,,,"345,000,000",,,,"306,000,000",,,,"254,000,000",,,,"219,000,000","215,000,000","222,000,000",,"155,000,000",,,,"155,000,000",,,,"165,000,000",,,,"146,000,000",,,,"118,000,000",,,,"116,200,000",,,,"119,500,000",,,,"117,400,000",,,,,,,,,,,,,,,,,,,,,,,,,
			CurrentDeferredTaxesAssets,,,,,,,,,,,,,,,,,,,,,,,,,,"0","386,000,000","394,000,000","373,000,000","406,000,000","421,000,000","430,000,000","433,000,000","425,000,000","424,000,000",,,"430,000,000",,,,"473,000,000",,,,"451,000,000",,,,"485,000,000",,,,"515,000,000",,,,"418,000,000",,,,"394,000,000",,,,"345,000,000",,,,"306,000,000",,,,"254,000,000",,,,"219,000,000","215,000,000","222,000,000",,"155,000,000",,,,"155,000,000",,,,"165,000,000",,,,"146,000,000",,,,"118,000,000",,,,"116,200,000",,,,"119,500,000",,,,"117,400,000",,,,,,,,,,,,,,,,,,,,,,,,,
		AssetsHeldForSaleCurrent,,,,,,,,,,,,,,,,,,"0","0","177,000,000","34,000,000","30,000,000","443,000,000","148,000,000",,,,,,,,,,,,,,,,,,,,,,,,,,,,,,,,,,,,,,,,,,,,,,,,,,,,,,,,,,,,,,,,,,,,,,,,,,,,,,,,,,,,,,,,,,,,,,,,,,,,,,,,,,,,,,,
		OtherCurrentAssets,"496,000,000","379,000,000","365,000,000","417,000,000","463,000,000","415,000,000","392,000,000","401,000,000","467,000,000","431,000,000","439,000,000","414,000,000","408,000,000","370,000,000","402,000,000","402,000,000","400,000,000","353,000,000","350,000,000","394,000,000","439,000,000","321,000,000","361,000,000","379,000,000","719,000,000","606,000,000","589,000,000","651,000,000","699,000,000","621,000,000","566,000,000","544,000,000","471,000,000","484,000,000","447,000,000","844,000,000","824,000,000","392,000,000","799,000,000","819,000,000","844,000,000","302,000,000","777,000,000","828,000,000","820,000,000","278,000,000","779,000,000","780,000,000","825,000,000","263,000,000","841,000,000","851,000,000","849,000,000","282,000,000","750,000,000","782,000,000","1,229,000,000","720,000,000","1,307,000,000","691,000,000","654,000,000","185,000,000","614,000,000","577,000,000","525,000,000","218,000,000","500,000,000","495,000,000","482,000,000","166,000,000","451,000,000","437,000,000","401,000,000","156,000,000","409,000,000","393,000,000","365,000,000","181,000,000","156,000,000","134,000,000","288,000,000","120,000,000","285,000,000","305,000,000","325,000,000","143,000,000","286,000,000","256,000,000","252,000,000","129,000,000","365,000,000","268,000,000","257,000,000","103,000,000","228,000,000","249,000,000","247,000,000","121,000,000","201,000,000","192,000,000","193,400,000","88,500,000","189,900,000","195,000,000","193,700,000","67,800,000","176,600,000","188,400,000","197,600,000","73,400,000","233,900,000","221,100,000","227,100,000","234,000,000","208,900,000","199,900,000","200,000,000","123,700,000","155,000,000","152,100,000","153,400,000","202,500,000","154,200,000","127,900,000","150,100,000","143,200,000","157,300,000","146,300,000","137,600,000","130,100,000","124,200,000","102,500,000","65,500,000","52,000,000","53,600,000"
	TotalNonCurrentAssets,"14,261,000,000","14,577,000,000","14,583,000,000","14,907,000,000","12,800,000,000","12,758,000,000","11,298,000,000","11,093,000,000","10,998,000,000","11,538,000,000","11,247,000,000","11,248,000,000","10,962,000,000","10,054,000,000","9,977,000,000","9,915,000,000","10,434,000,000","10,061,000,000","9,977,000,000","9,832,000,000","9,508,000,000","9,317,000,000","10,073,000,000","10,141,000,000","10,597,000,000","10,522,000,000","10,282,000,000","10,222,000,000","10,284,000,000","10,733,000,000","8,189,000,000","8,265,000,000","8,229,000,000","8,649,000,000","8,518,000,000","8,356,000,000","7,650,000,000","8,163,000,000","7,829,000,000","7,666,000,000","7,890,000,000","7,688,000,000","7,603,000,000","8,028,000,000","8,019,000,000","7,917,000,000","7,815,000,000","7,480,000,000","7,834,000,000","8,259,000,000","8,321,000,000","8,143,000,000","7,833,000,000","8,350,000,000","8,467,000,000","9,116,000,000","8,950,000,000","5,493,000,000","5,491,000,000","5,733,000,000","5,616,000,000","5,429,000,000","5,226,000,000","4,985,000,000","4,744,000,000","4,662,000,000","4,721,000,000","4,733,000,000","4,813,000,000","4,878,000,000","4,768,000,000","4,758,000,000","4,902,000,000","4,887,000,000","4,933,000,000","5,003,000,000","4,956,000,000","4,918,000,000","5,532,000,000","5,659,000,000","5,646,000,000","5,749,000,000","5,844,000,000","5,816,000,000","5,900,000,000","6,032,000,000","5,886,000,000","5,910,000,000","5,895,000,000","5,852,000,000","5,609,000,000","4,734,000,000","4,710,000,000","4,727,000,000","4,417,000,000","4,413,000,000","4,377,000,000","4,284,000,000","4,127,000,000","4,086,000,000","4,085,900,000","4,145,000,000","4,073,700,000","4,049,300,000","3,945,200,000","3,918,800,000","3,813,800,000","3,725,400,000","3,696,900,000","3,725,700,000","3,550,900,000","3,562,000,000","3,618,600,000","3,625,600,000","3,655,300,000","3,707,300,000","3,751,800,000","3,710,900,000","3,829,500,000","3,842,200,000","3,790,700,000","3,882,900,000","3,836,000,000","3,785,900,000","3,840,100,000","3,891,300,000","3,816,800,000","3,623,900,000","3,601,200,000","3,589,100,000","3,372,200,000","3,255,100,000","3,152,300,000","3,025,500,000","2,713,700,000"
		NetPPE,"4,201,000,000","4,333,000,000","4,256,000,000","4,358,000,000","3,903,000,000","3,974,000,000","3,726,000,000","3,691,000,000","3,647,000,000","3,765,000,000","3,604,000,000","3,660,000,000","3,592,000,000","2,805,000,000","2,738,000,000","2,738,000,000","2,862,000,000","2,824,000,000","2,730,000,000","2,710,000,000","2,806,000,000","2,759,000,000","2,863,000,000","2,950,000,000","3,038,000,000","3,017,000,000","2,919,000,000","2,917,000,000","2,965,000,000","3,092,000,000","2,720,000,000","2,777,000,000","2,724,000,000","2,876,000,000","2,687,000,000","2,637,000,000","2,461,000,000","2,888,000,000","2,759,000,000","2,719,000,000","2,785,000,000","2,721,000,000","2,669,000,000","2,759,000,000","2,696,000,000","2,686,000,000","2,620,000,000","2,533,000,000","2,660,000,000","2,754,000,000","2,765,000,000","2,745,000,000","2,658,000,000","2,798,000,000","2,833,000,000","3,363,000,000","3,253,000,000","2,426,000,000","2,391,000,000","2,535,000,000","2,512,000,000","2,496,000,000","2,412,000,000","2,364,000,000","2,283,000,000","2,304,000,000","2,336,000,000","2,356,000,000","2,412,000,000","2,471,000,000","2,420,000,000","2,453,000,000","2,512,000,000","2,566,000,000","2,543,000,000","2,610,000,000","2,611,000,000","2,632,000,000","2,606,000,000","2,674,000,000","2,695,000,000","2,752,000,000","2,791,000,000","2,801,000,000","2,849,000,000","2,941,000,000","2,900,000,000","2,920,000,000","2,918,000,000","2,933,000,000","2,861,000,000","2,876,000,000","2,874,000,000","2,905,000,000","2,806,000,000","2,889,000,000","2,878,000,000","2,855,000,000","2,846,000,000","2,861,000,000","2,871,400,000","2,913,500,000","2,891,600,000","2,863,500,000","2,850,000,000","2,834,800,000","2,763,600,000","2,757,800,000","2,758,900,000","2,742,300,000","2,718,900,000","2,735,700,000","2,762,700,000","2,787,300,000","2,839,200,000","2,908,000,000","2,952,000,000","2,971,500,000","3,070,300,000","3,111,500,000","3,091,400,000","3,183,200,000","3,132,700,000","3,105,300,000","3,183,600,000","3,255,100,000","3,163,800,000","3,018,900,000","3,003,200,000","3,006,800,000","2,912,800,000","2,757,700,000","2,685,000,000","2,660,600,000","2,478,500,000"
			GrossPPE,"8,765,000,000","8,865,000,000","8,773,000,000","8,842,000,000","8,270,000,000","8,323,000,000","8,007,000,000","7,867,000,000","7,712,000,000","7,847,000,000","7,568,000,000","7,623,000,000","7,489,000,000","6,633,000,000","6,618,000,000","6,586,000,000","6,749,000,000","6,594,000,000","6,467,000,000","6,339,000,000","6,775,000,000","6,634,000,000","6,784,000,000","7,304,000,000","7,595,000,000","7,451,000,000","7,352,000,000","7,319,000,000","7,240,000,000","7,470,000,000","7,183,000,000","7,522,000,000","7,420,000,000","7,681,000,000","7,449,000,000","7,273,000,000","7,042,000,000","9,030,000,000","8,851,000,000","8,725,000,000","8,808,000,000","8,614,000,000","8,537,000,000","8,706,000,000","8,562,000,000","8,415,000,000","8,314,000,000","8,014,000,000","8,209,000,000","8,313,000,000","8,279,000,000","8,156,000,000","7,900,000,000","8,043,000,000","8,099,000,000","9,736,000,000","8,816,000,000","7,833,000,000","7,755,000,000","8,580,000,000","8,445,000,000","8,344,000,000","8,173,000,000","8,058,000,000","7,865,000,000","7,802,000,000","7,809,000,000","7,749,000,000","7,812,000,000","7,855,000,000","7,668,000,000","7,602,000,000","7,620,000,000","7,620,000,000","7,479,000,000","7,482,000,000","7,352,000,000","7,270,000,000","7,232,000,000","7,284,000,000","7,161,000,000","7,153,000,000","7,143,000,000","7,060,000,000","7,072,000,000","7,089,000,000","6,978,000,000","6,962,000,000","6,901,000,000","6,859,000,000","6,757,000,000","6,792,000,000","6,734,000,000","6,739,000,000","6,548,000,000","6,902,000,000","6,816,000,000","6,758,000,000","6,716,000,000","6,667,000,000","6,644,200,000","6,688,200,000","6,679,900,000","6,603,300,000","6,533,100,000","6,464,000,000","6,392,600,000","6,348,100,000","6,010,500,000","6,162,700,000","6,128,400,000","6,076,400,000","6,084,600,000","6,041,900,000","6,108,300,000","6,187,100,000","6,186,200,000","6,157,700,000","6,296,100,000","6,162,200,000","6,142,100,000","6,212,400,000","6,067,100,000","5,966,600,000","6,008,800,000","5,995,000,000","5,830,900,000","5,596,100,000","5,513,900,000","5,447,500,000","5,292,000,000","5,005,600,000","4,754,400,000","4,573,100,000","4,181,100,000"
				Properties,,"0",,,,"0",,,,"0",,,,"0",,,,"0",,,,"0",,,,"0",,,,"0",,,,"0",,,,"0",,,,"0",,,,"0",,,,"0",,,,"0",,,,"0",,,,"0",,,,,,,,"0",,,,"0",,,,"0",,,,"0",,,,"0",,,,"0",,,,"0",,,,"0",,,,"0",,,,"0",,,,"0",,,,,,,,,,,,,,,,,,,,,,,,,
				LandAndImprovements,,"570,000,000",,,,"541,000,000",,,,"511,000,000",,,,"489,000,000",,,,"487,000,000",,,,"464,000,000",,,,"495,000,000",,,,"489,000,000",,,,"473,000,000",,,,"504,000,000",,,,"482,000,000",,,,"477,000,000",,,,"478,000,000",,,,"453,000,000",,,,"401,000,000",,,,"385,000,000",,,,,,,,"346,000,000",,,,"332,000,000",,,,"309,000,000",,,,"301,000,000",,,,"303,000,000",,,,"308,000,000",,,,"317,000,000",,,,"304,000,000",,,,"295,900,000",,,,"288,400,000",,,,"280,700,000",,,,,,,,,,,,,,,,,,,,,,,,,
				BuildingsAndImprovements,,"1,769,000,000",,,,"1,673,000,000",,,,"1,573,000,000",,,,"1,472,000,000",,,,"1,488,000,000",,,,"1,420,000,000",,,,"1,557,000,000",,,,"1,563,000,000",,,,"1,593,000,000",,,,"1,568,000,000",,,,"1,482,000,000",,,,"1,467,000,000",,,,"1,476,000,000",,,,"1,416,000,000",,,,"1,272,000,000",,,,"1,322,000,000",,,,,,,,"1,224,000,000",,,,"1,189,000,000",,,,"1,126,000,000",,,,"1,099,000,000",,,,"1,076,000,000",,,,"1,058,000,000",,,,"1,194,000,000",,,,"1,188,000,000",,,,"1,184,800,000",,,,"1,129,800,000",,,,"1,102,800,000",,,,,,,,,,,,,,,,,,,,,,,,,
				MachineryFurnitureEquipment,,"3,949,000,000",,,,"3,794,000,000",,,,"3,575,000,000",,,,"3,387,000,000",,,,"3,432,000,000",,,,"3,584,000,000",,,,"4,233,000,000",,,,"4,284,000,000",,,,"4,513,000,000",,,,"5,952,000,000",,,,"6,430,000,000",,,,"5,587,000,000",,,,"5,507,000,000",,,,"5,338,000,000",,,,"5,487,000,000",,,,"5,941,000,000",,,,,,,,"5,707,000,000",,,,"5,572,000,000",,,,"5,273,000,000",,,,"5,192,000,000",,,,"5,020,000,000",,,,"4,864,000,000",,,,"4,697,000,000",,,,"4,802,000,000",,,,"4,747,900,000",,,,"4,618,000,000",,,,"4,402,300,000",,,,,,,,,,,,,,,,,,,,,,,,,
				OtherProperties,"8,765,000,000","2,068,000,000","8,773,000,000","8,842,000,000","8,270,000,000","1,970,000,000","8,007,000,000","7,867,000,000","7,712,000,000","1,874,000,000","7,568,000,000","7,623,000,000","7,489,000,000","989,000,000",,,,"958,000,000",,,,"783,000,000",,,,"813,000,000",,,,"751,000,000",,,,"743,000,000",,,,"735,000,000",,,,,,,,"652,000,000",,,,"689,000,000",,,,"604,000,000",,,,"507,000,000",,,,"483,000,000",,,,,,,,"468,000,000",,,,"453,000,000",,,,"419,000,000",,,,"384,000,000",,,,"371,000,000",,,,"348,000,000",,,,"323,000,000",,,,"291,000,000",,,,"246,800,000",,,,"233,000,000",,,,"226,700,000",,,,,,,,,,,,,,,,,,,,,,,,,
				ConstructionInProgress,,"509,000,000",,,,"345,000,000",,,,"314,000,000",,,,"296,000,000",,,,"229,000,000",,,,"383,000,000",,,,"353,000,000",,,,"383,000,000",,,,"359,000,000",,,,"271,000,000",,,,"220,000,000",,,,"232,000,000",,,,"163,000,000",,,,"232,000,000",,,,"166,000,000",,,,"213,000,000",,,,,,,,"110,000,000",,,,"74,000,000",,,,"143,000,000",,,,"177,000,000",,,,"319,000,000",,,,"281,000,000",,,,"208,000,000",,,,"173,000,000",,,,"212,800,000",,,,"194,800,000",,,,"150,200,000",,,,,,,,,,,,,,,,,,,,,,,,,
			AccumulatedDepreciation,"-4,564,000,000","-4,532,000,000","-4,517,000,000","-4,484,000,000","-4,367,000,000","-4,349,000,000","-4,281,000,000","-4,176,000,000","-4,065,000,000","-4,082,000,000","-3,964,000,000","-3,963,000,000","-3,897,000,000","-3,828,000,000","-3,880,000,000","-3,848,000,000","-3,887,000,000","-3,770,000,000","-3,737,000,000","-3,629,000,000","-3,969,000,000","-3,875,000,000","-3,921,000,000","-4,354,000,000","-4,557,000,000","-4,434,000,000","-4,433,000,000","-4,402,000,000","-4,275,000,000","-4,378,000,000","-4,463,000,000","-4,745,000,000","-4,696,000,000","-4,805,000,000","-4,762,000,000","-4,636,000,000","-4,581,000,000","-6,142,000,000","-6,092,000,000","-6,006,000,000","-6,023,000,000","-5,893,000,000","-5,868,000,000","-5,947,000,000","-5,866,000,000","-5,729,000,000","-5,694,000,000","-5,481,000,000","-5,549,000,000","-5,559,000,000","-5,514,000,000","-5,411,000,000","-5,242,000,000","-5,245,000,000","-5,266,000,000","-6,373,000,000","-5,563,000,000","-5,407,000,000","-5,364,000,000","-6,045,000,000","-5,933,000,000","-5,848,000,000","-5,761,000,000","-5,694,000,000","-5,582,000,000","-5,498,000,000","-5,473,000,000","-5,393,000,000","-5,400,000,000","-5,384,000,000","-5,248,000,000","-5,149,000,000","-5,108,000,000","-5,054,000,000","-4,936,000,000","-4,872,000,000","-4,741,000,000","-4,638,000,000","-4,626,000,000","-4,610,000,000","-4,466,000,000","-4,401,000,000","-4,352,000,000","-4,259,000,000","-4,223,000,000","-4,148,000,000","-4,078,000,000","-4,042,000,000","-3,983,000,000","-3,926,000,000","-3,896,000,000","-3,916,000,000","-3,860,000,000","-3,834,000,000","-3,742,000,000","-4,013,000,000","-3,938,000,000","-3,903,000,000","-3,870,000,000","-3,806,000,000","-3,772,800,000","-3,774,700,000","-3,788,300,000","-3,739,800,000","-3,683,100,000","-3,629,200,000","-3,629,000,000","-3,590,300,000","-3,251,600,000","-3,420,400,000","-3,409,500,000","-3,340,700,000","-3,321,900,000","-3,254,600,000","-3,269,100,000","-3,279,100,000","-3,234,200,000","-3,186,200,000","-3,225,800,000","-3,050,700,000","-3,050,700,000","-3,029,200,000","-2,934,400,000","-2,861,300,000","-2,825,200,000","-2,739,900,000","-2,667,100,000","-2,577,200,000","-2,510,700,000","-2,440,700,000","-2,379,200,000","-2,247,900,000","-2,069,400,000","-1,912,500,000","-1,702,600,000"
		GoodwillAndOtherIntangibleAssets,"8,822,000,000","9,031,000,000","9,048,000,000","9,257,000,000","7,454,000,000","7,453,000,000","6,349,000,000","6,223,000,000","6,161,000,000","6,601,000,000","6,418,000,000","6,393,000,000","6,123,000,000","6,042,000,000","5,943,000,000","5,906,000,000","6,232,000,000","5,987,000,000","5,980,000,000","5,963,000,000","5,800,000,000","5,555,000,000","5,774,000,000","5,675,000,000","5,913,000,000","5,847,000,000","5,867,000,000","5,881,000,000","5,818,000,000","6,212,000,000","4,172,000,000","4,282,000,000","4,295,000,000","4,347,000,000","4,394,000,000","4,311,000,000","3,727,000,000","3,846,000,000","3,772,000,000","3,711,000,000","3,861,000,000","3,785,000,000","3,872,000,000","4,151,000,000","4,097,000,000","3,987,000,000","4,022,000,000","3,764,000,000","4,030,000,000","4,200,000,000","4,254,000,000","4,142,000,000","3,932,000,000","4,113,000,000","4,272,000,000","4,599,000,000","4,573,000,000","2,088,000,000","2,091,000,000","2,103,000,000","2,092,000,000","1,982,000,000","1,947,000,000","1,797,000,000","1,665,000,000","1,654,000,000","1,650,000,000","1,654,000,000","1,680,000,000","1,713,000,000","1,660,000,000","1,651,000,000","1,674,000,000","1,652,000,000","1,607,000,000","1,610,000,000","1,574,000,000","1,561,000,000","1,532,000,000","1,549,000,000","1,506,000,000","1,542,000,000","1,574,000,000","1,570,000,000","1,595,000,000","1,648,000,000","1,638,000,000","1,696,000,000","1,722,000,000","1,662,000,000","1,573,000,000","571,000,000","586,000,000","576,000,000",,,,,,,,,,,,,,,,,,,,,,,,,,,,,,,,,,,,,,,,,
			Goodwill,"6,232,000,000","6,248,000,000","6,206,000,000","6,233,000,000","5,153,000,000","5,102,000,000","4,419,000,000","4,307,000,000","4,243,000,000","4,470,000,000","4,335,000,000","4,312,000,000","4,103,000,000","4,070,000,000","3,939,000,000","3,920,000,000","4,100,000,000","3,942,000,000","3,881,000,000","3,845,000,000","3,720,000,000","3,572,000,000","3,701,000,000","3,602,000,000","3,743,000,000","3,669,000,000","3,643,000,000","3,621,000,000","3,541,000,000","3,801,000,000","2,898,000,000","2,978,000,000","2,969,000,000","3,008,000,000","3,023,000,000","2,937,000,000","2,694,000,000","2,761,000,000","2,706,000,000","2,644,000,000","2,729,000,000","2,660,000,000","2,698,000,000","2,871,000,000","2,814,000,000","2,719,000,000","2,725,000,000","2,526,000,000","2,687,000,000","2,784,000,000","2,798,000,000","2,696,000,000","2,544,000,000","2,641,000,000","2,711,000,000","2,874,000,000","2,824,000,000","1,476,000,000","1,462,000,000","1,466,000,000","1,447,000,000","1,396,000,000","1,319,000,000","1,244,000,000","1,177,000,000",,,,,,,,,,,,,,,,,,,,,,,,,,,,,,,,,,,,,,,,,,,,,,,,,,,,,,,,,,,,,,,,,,,,,,
			OtherIntangibleAssets,"2,590,000,000","2,783,000,000","2,842,000,000","3,024,000,000","2,301,000,000","2,351,000,000","1,930,000,000","1,916,000,000","1,918,000,000","2,131,000,000","2,083,000,000","2,081,000,000","2,020,000,000","1,972,000,000","2,004,000,000","1,986,000,000","2,132,000,000","2,045,000,000","2,099,000,000","2,118,000,000","2,080,000,000","1,983,000,000","2,073,000,000","2,073,000,000","2,170,000,000","2,178,000,000","2,224,000,000","2,260,000,000","2,277,000,000","2,411,000,000","1,274,000,000","1,304,000,000","1,326,000,000","1,339,000,000","1,371,000,000","1,374,000,000","1,033,000,000","1,085,000,000","1,066,000,000","1,067,000,000","1,132,000,000","1,125,000,000","1,174,000,000","1,280,000,000","1,283,000,000","1,268,000,000","1,297,000,000","1,238,000,000","1,343,000,000","1,416,000,000","1,456,000,000","1,446,000,000","1,388,000,000","1,472,000,000","1,561,000,000","1,725,000,000","1,749,000,000","612,000,000","629,000,000","637,000,000","645,000,000","586,000,000","628,000,000","553,000,000","488,000,000","1,654,000,000","1,650,000,000","1,654,000,000","1,680,000,000","1,713,000,000","1,660,000,000","1,651,000,000","1,674,000,000","1,652,000,000","1,607,000,000","1,610,000,000","1,574,000,000","1,561,000,000","1,532,000,000","1,549,000,000","1,506,000,000","1,542,000,000","1,574,000,000","1,570,000,000","1,595,000,000","1,648,000,000","1,638,000,000","1,696,000,000","1,722,000,000","1,662,000,000","1,573,000,000","571,000,000","586,000,000","576,000,000",,,,,,,,,,,,,,,,,,,,,,,,,,,,,,,,,,,,,,,,,
		InvestmentsAndAdvances,"267,000,000","274,000,000","272,000,000","269,000,000","429,000,000","267,000,000","267,000,000","251,000,000","245,000,000","258,000,000","254,000,000","251,000,000","261,000,000","251,000,000","266,000,000","258,000,000","270,000,000","268,000,000","261,000,000","256,000,000","175,000,000","179,000,000","328,000,000","322,000,000","370,000,000","367,000,000","453,000,000","459,000,000","449,000,000","443,000,000","449,000,000","381,000,000","380,000,000","393,000,000","404,000,000","402,000,000","418,000,000","422,000,000","424,000,000","419,000,000","426,000,000","387,000,000","400,000,000","405,000,000","554,000,000","550,000,000","536,000,000","525,000,000","503,000,000","499,000,000","506,000,000","499,000,000","493,000,000","509,000,000",,,,,,,,,,,,,,,,,,,,,,,,,,,,,,,,,,,,,,,,,,,,,,,,,,,,,,,,,,,,,,,,,,,,,,,,,,,,,,,,,
		NonCurrentDeferredAssets,"237,000,000","197,000,000","311,000,000","338,000,000","334,000,000","379,000,000","257,000,000","188,000,000","183,000,000","220,000,000","194,000,000","199,000,000","242,000,000","229,000,000","306,000,000","290,000,000","351,000,000","305,000,000","421,000,000","321,000,000","139,000,000","154,000,000","516,000,000","540,000,000","648,000,000","672,000,000","374,000,000","404,000,000","450,000,000","505,000,000","252,000,000","230,000,000","270,000,000","491,000,000","629,000,000",,,,,,,,,,,,,,,,,,,,,,,,,,,,,,,,,,,,,,,,,,,,,,,,,,,,,,,,,,,,,,,,,,,,,,,,,,,,,,,,,,,,,,,,,,,,,,,,,,,,
			NonCurrentDeferredTaxesAssets,"237,000,000","197,000,000","311,000,000","338,000,000","334,000,000","379,000,000","257,000,000","188,000,000","183,000,000","220,000,000","194,000,000","199,000,000","242,000,000","229,000,000","306,000,000","290,000,000","351,000,000","305,000,000","421,000,000","321,000,000","139,000,000","154,000,000","516,000,000","540,000,000","648,000,000","672,000,000","374,000,000","404,000,000","450,000,000","505,000,000","252,000,000","230,000,000","270,000,000","491,000,000","629,000,000",,,,,,,,,,,,,,,,,,,,,,,,,,,,,,,,,,,,,,,,,,,,,,,,,,,,,,,,,,,,,,,,,,,,,,,,,,,,,,,,,,,,,,,,,,,,,,,,,,,,
		OtherNonCurrentAssets,"734,000,000","742,000,000","696,000,000","685,000,000","680,000,000","685,000,000","699,000,000","740,000,000","762,000,000","694,000,000","777,000,000","745,000,000","744,000,000","727,000,000","724,000,000","723,000,000","719,000,000","677,000,000","585,000,000","582,000,000","588,000,000","670,000,000","592,000,000","654,000,000","628,000,000","619,000,000","669,000,000","561,000,000","602,000,000","481,000,000","596,000,000","595,000,000","560,000,000","542,000,000","404,000,000","1,006,000,000","1,044,000,000","1,007,000,000","874,000,000","817,000,000","818,000,000","795,000,000","662,000,000","713,000,000","672,000,000","694,000,000","637,000,000","658,000,000","641,000,000","806,000,000","796,000,000","757,000,000","750,000,000","930,000,000","1,362,000,000","1,154,000,000","1,124,000,000","979,000,000","1,009,000,000","1,095,000,000","1,012,000,000","951,000,000","867,000,000","824,000,000","796,000,000","704,000,000","735,000,000","723,000,000","721,000,000","694,000,000","688,000,000","654,000,000","716,000,000","669,000,000","783,000,000","783,000,000","771,000,000","725,000,000","1,394,000,000","1,436,000,000","1,445,000,000","1,455,000,000","1,479,000,000","1,445,000,000","1,456,000,000","1,443,000,000","1,348,000,000","1,294,000,000","1,255,000,000","1,257,000,000","1,175,000,000","1,287,000,000","1,250,000,000","1,246,000,000","1,611,000,000","1,524,000,000","1,499,000,000","1,429,000,000","1,281,000,000","1,225,000,000","1,214,500,000","1,231,500,000","1,182,100,000","1,185,800,000","1,095,200,000","1,084,000,000","1,050,200,000","967,600,000","938,000,000","983,400,000","832,000,000","826,300,000","855,900,000","838,300,000","816,100,000","799,300,000","799,800,000","739,400,000","759,200,000","730,700,000","699,300,000","699,700,000","703,300,000","680,600,000","656,500,000","636,200,000","653,000,000","605,000,000","598,000,000","582,300,000","459,400,000","497,400,000","467,300,000","364,900,000","235,200,000"
TotalLiabilitiesNetMinorityInterest,"15,555,000,000","14,940,000,000","15,473,000,000","15,942,000,000","14,170,000,000","13,741,000,000","12,876,000,000","13,232,000,000","13,227,000,000","12,305,000,000","12,709,000,000","12,768,000,000","12,361,000,000","11,283,000,000","11,640,000,000","11,811,000,000","12,077,000,000","10,865,000,000","11,605,000,000","11,242,000,000","10,868,000,000","10,856,000,000","11,369,000,000","11,815,000,000","12,067,000,000","12,007,000,000","12,378,000,000","12,340,000,000","12,210,000,000","12,318,000,000","10,882,000,000","10,979,000,000","11,028,000,000","10,665,000,000","11,157,000,000","10,765,000,000","10,335,000,000","11,556,000,000","11,474,000,000","11,142,000,000","11,318,000,000","10,936,000,000","10,637,000,000","10,979,000,000","11,108,000,000","11,142,000,000","10,018,000,000","9,727,000,000","9,967,000,000","10,318,000,000","10,835,000,000","11,197,000,000","10,600,000,000","11,365,000,000","10,676,000,000","11,389,000,000","11,346,000,000","8,345,000,000","6,764,000,000","6,815,000,000","6,744,000,000","6,639,000,000","6,160,000,000","5,896,000,000","5,577,000,000","5,520,000,000","5,346,000,000","5,256,000,000","5,358,000,000","5,264,000,000","5,230,000,000","5,472,000,000","5,519,000,000","5,376,000,000","5,646,000,000","5,741,000,000","5,670,000,000","5,582,000,000","5,675,000,000","5,894,000,000","5,322,000,000","5,250,000,000","5,598,000,000","5,755,000,000","5,916,000,000","5,900,000,000","5,756,000,000","5,770,000,000","5,833,000,000","5,710,000,000","5,648,000,000","4,487,000,000","4,541,000,000","4,420,000,000","4,126,000,000","4,435,000,000","4,412,000,000","4,277,000,000","3,973,000,000","4,022,000,000","4,023,100,000","3,882,600,000","3,788,600,000","3,946,000,000","3,773,600,000","3,556,900,000","3,475,200,000","3,284,900,000","3,327,100,000","3,266,600,000","3,111,500,000","3,192,000,000","3,330,700,000","3,126,500,000","3,250,700,000","3,267,000,000","3,456,900,000","2,902,500,000","3,197,800,000","3,260,300,000","3,289,300,000","3,326,200,000","3,300,900,000","3,364,000,000","3,422,900,000","3,492,300,000","3,501,400,000","3,361,000,000","3,348,500,000","3,299,100,000","3,049,100,000","2,910,700,000","2,944,400,000","2,663,600,000","2,378,500,000"
	CurrentLiabilities,"5,172,000,000","4,766,000,000","5,463,000,000","5,488,000,000","5,120,000,000","4,831,000,000","4,613,000,000","5,234,000,000","5,195,000,000","4,375,000,000","4,578,000,000","4,706,000,000","4,588,000,000","4,373,000,000","3,933,000,000","4,047,000,000","4,030,000,000","3,894,000,000","4,618,000,000","4,441,000,000","4,273,000,000","4,240,000,000","4,460,000,000","4,375,000,000","4,556,000,000","4,656,000,000","4,770,000,000","4,825,000,000","4,773,000,000","4,876,000,000","4,896,000,000","4,962,000,000","4,566,000,000","4,135,000,000","4,362,000,000","4,106,000,000","3,727,000,000","4,461,000,000","4,490,000,000","4,565,000,000","4,558,000,000","3,702,000,000","3,788,000,000","3,922,000,000","3,749,000,000","3,625,000,000","3,523,000,000","3,373,000,000","3,418,000,000","3,577,000,000","3,869,000,000","4,102,000,000","3,970,000,000","4,210,000,000","4,469,000,000","4,745,000,000","4,492,000,000","4,661,000,000","3,032,000,000","2,962,000,000","2,949,000,000","2,787,000,000","2,754,000,000","2,638,000,000","2,344,000,000","2,349,000,000","2,335,000,000","2,233,000,000","2,321,000,000","2,221,000,000","2,222,000,000","2,385,000,000","2,241,000,000","2,139,000,000","2,236,000,000","2,050,000,000","1,944,000,000","1,920,000,000","2,068,000,000","2,244,000,000","2,068,000,000","1,955,000,000","2,312,000,000","2,505,000,000","2,658,000,000","2,543,000,000","2,460,000,000","2,481,000,000","2,508,000,000","2,384,000,000","2,291,000,000","1,989,000,000","2,045,000,000","1,912,000,000","1,530,000,000","1,792,000,000","1,818,000,000","1,662,000,000","1,656,000,000","1,731,000,000","1,726,800,000","1,768,900,000","1,693,300,000","1,860,200,000","1,853,400,000","1,629,400,000","1,580,300,000","1,512,700,000","1,576,300,000","1,424,500,000","1,289,700,000","1,370,500,000","1,460,300,000","1,281,000,000","1,343,300,000","1,418,800,000","1,463,100,000","1,253,000,000","1,366,800,000","1,315,500,000","1,367,900,000","1,340,500,000","1,193,100,000","1,296,000,000","1,478,300,000","1,470,500,000","1,602,900,000","1,612,100,000","1,457,900,000","1,337,700,000","1,109,400,000","1,264,500,000","1,274,800,000","975,700,000","823,600,000"
		PayablesAndAccruedExpenses,"4,492,000,000","4,305,000,000","4,378,000,000","4,318,000,000","3,815,000,000","3,707,000,000","3,482,000,000","3,055,000,000","3,367,000,000","3,411,000,000","3,636,000,000","3,746,000,000","3,684,000,000","3,543,000,000","3,806,000,000","3,893,000,000","3,924,000,000","3,702,000,000","3,895,000,000","3,653,000,000","3,573,000,000","3,386,000,000","3,567,000,000","3,577,000,000","3,616,000,000","3,360,000,000","3,611,000,000","3,590,000,000","3,329,000,000","3,454,000,000","3,687,000,000","3,691,000,000","3,712,000,000","3,172,000,000","3,503,000,000","3,343,000,000","2,949,000,000","2,958,000,000","3,105,000,000","3,160,000,000","3,133,000,000","2,386,000,000","3,105,000,000","3,199,000,000","3,045,000,000","3,002,000,000","2,860,000,000","2,724,000,000","2,685,000,000","2,648,000,000","2,720,000,000","2,513,000,000","2,414,000,000","2,816,000,000","3,128,000,000","3,316,000,000","3,003,000,000","2,150,000,000","2,111,000,000","2,145,000,000","2,078,000,000","2,090,000,000","2,075,000,000","1,939,000,000","1,778,000,000","1,776,000,000","1,789,000,000","1,590,000,000","1,751,000,000","1,651,000,000","1,663,000,000","1,641,000,000","1,594,000,000","1,504,000,000","1,560,000,000","1,527,000,000","1,429,000,000","1,378,000,000","1,392,000,000","1,411,000,000","1,333,000,000","1,259,000,000","1,368,000,000","1,389,000,000","1,374,000,000","1,382,000,000","1,436,000,000","1,463,000,000","1,403,000,000","1,430,000,000","1,379,000,000","1,242,000,000","1,202,000,000","1,264,000,000","1,164,000,000","1,245,000,000","1,212,000,000","1,210,000,000","1,081,000,000","1,095,000,000","1,055,400,000","1,105,500,000","1,071,400,000","1,080,400,000","1,066,800,000","1,103,500,000","1,096,300,000","1,077,900,000","1,059,400,000","1,034,400,000","971,500,000","989,400,000","929,900,000","921,200,000","904,900,000","862,900,000","888,600,000","447,000,000","887,100,000","899,500,000","840,700,000","915,100,000","842,700,000","837,500,000","871,900,000","1,015,700,000","911,400,000","888,100,000","832,300,000","851,400,000","817,700,000",,,,
			Payables,,"3,138,000,000",,,,"2,625,000,000",,,,"2,424,000,000",,,,"2,572,000,000",,,,"2,681,000,000",,,,"2,268,000,000",,,,"2,280,000,000",,,,"2,245,000,000",,,,"2,095,000,000",,,,"1,903,000,000",,,,"1,663,000,000",,,,"1,682,000,000",,,,"1,417,000,000",,,,"2,128,000,000","3,128,000,000","3,316,000,000","3,003,000,000","2,150,000,000","2,111,000,000","2,145,000,000","2,078,000,000","1,081,000,000","2,075,000,000","1,939,000,000","1,778,000,000","1,776,000,000","1,789,000,000","1,590,000,000","1,751,000,000","1,651,000,000","1,663,000,000","1,641,000,000","1,594,000,000","1,504,000,000","1,560,000,000","1,527,000,000","1,429,000,000","1,378,000,000","1,392,000,000","1,411,000,000","1,333,000,000","610,000,000","1,368,000,000","1,389,000,000","1,374,000,000","764,000,000","1,436,000,000","1,463,000,000","1,403,000,000","755,000,000","1,379,000,000","1,242,000,000","1,202,000,000","630,000,000","1,164,000,000","1,245,000,000","1,212,000,000","646,000,000","1,081,000,000","1,095,000,000","1,055,400,000","601,900,000","1,071,400,000","1,080,400,000","1,066,800,000","583,400,000","1,096,300,000","1,077,900,000","1,059,400,000","517,800,000","971,500,000","989,400,000","929,900,000","921,200,000","904,900,000","862,900,000","888,600,000","447,000,000","887,100,000","899,500,000","840,700,000","915,100,000","842,700,000","837,500,000","871,900,000","1,015,700,000","911,400,000","888,100,000","832,300,000","851,400,000","817,700,000",,,,
				AccountsPayable,,"3,102,000,000",,,,"2,579,000,000",,,,"2,378,000,000",,,,"2,460,000,000",,,,"2,581,000,000",,,,"2,175,000,000",,,,"2,174,000,000",,,,"2,183,000,000",,,,"2,015,000,000",,,,"1,832,000,000",,,,"1,612,000,000",,,,"1,626,000,000",,,,"1,384,000,000",,,,"1,402,000,000","3,128,000,000","3,316,000,000","3,003,000,000","2,150,000,000","2,111,000,000","2,145,000,000","2,078,000,000","1,081,000,000","2,075,000,000","1,939,000,000","1,778,000,000","1,776,000,000","1,789,000,000","1,590,000,000","1,751,000,000","1,651,000,000","1,663,000,000","1,641,000,000","1,594,000,000","1,504,000,000","1,560,000,000","1,527,000,000","1,429,000,000","1,378,000,000","1,392,000,000","1,411,000,000","1,333,000,000","610,000,000","1,368,000,000","1,389,000,000","1,374,000,000","764,000,000","1,436,000,000","1,463,000,000","1,403,000,000","755,000,000","1,379,000,000","1,242,000,000","1,202,000,000","630,000,000","1,164,000,000","1,245,000,000","1,212,000,000","646,000,000","1,081,000,000","1,095,000,000","1,055,400,000","601,900,000","1,071,400,000","1,080,400,000","1,066,800,000","583,400,000","1,096,300,000","1,077,900,000","1,059,400,000","517,800,000","971,500,000","989,400,000","929,900,000","921,200,000","904,900,000","862,900,000","888,600,000","447,000,000","887,100,000","899,500,000","840,700,000","915,100,000","842,700,000","837,500,000","871,900,000","1,015,700,000","911,400,000","888,100,000","832,300,000","851,400,000","817,700,000",,,,
				TotalTaxPayable,,"36,000,000",,,,"46,000,000",,,,"46,000,000",,,,"112,000,000",,,,"100,000,000",,,,"93,000,000",,,,"106,000,000",,,,"62,000,000",,,,"80,000,000",,,,"71,000,000",,,,"51,000,000",,,,"56,000,000",,,,"33,000,000",,,,"62,000,000",,,,,,,,,,,,,,,,,,,,,,,,,,,,,,,,,,,,,,,,,,,,,,,,,,,,,,,,,,,,,,,,,,,,,,,,,,,,,,,,,
					IncomeTaxPayable,,"36,000,000",,,,"46,000,000",,,,"46,000,000",,,,"112,000,000",,,,"100,000,000",,,,"93,000,000",,,,"106,000,000",,,,"62,000,000",,,,"80,000,000",,,,"71,000,000",,,,"51,000,000",,,,"56,000,000",,,,"33,000,000",,,,"62,000,000",,,,,,,,,,,,,,,,,,,,,,,,,,,,,,,,,,,,,,,,,,,,,,,,,,,,,,,,,,,,,,,,,,,,,,,,,,,,,,,,,
				OtherPayable,,,,,,,,,,,,,,,,,,,,,,,,,,,,,,,,,,,,,,,,,,,,,,,,,,,,,,"664,000,000",,,,,,,,,,,,,,,,,,,,,,,,,,,,,,,,,,,,,,,,,,,,,,,,,,,,,,,,,,,,,,,,,,,,,,,,,,,,,,,,,
			CurrentAccruedExpenses,,"1,167,000,000",,,,"1,082,000,000",,,,"987,000,000",,,,"971,000,000",,,,"1,021,000,000",,,,"1,118,000,000",,,,"1,080,000,000",,,,"1,209,000,000",,,,"1,077,000,000",,,,"1,055,000,000",,,,"723,000,000",,,,"1,320,000,000",,,,"1,231,000,000",,,,"688,000,000",,,,,,,,"1,009,000,000",,,,,,,,,,,,,,,,,,,,"649,000,000",,,,"618,000,000",,,,"675,000,000",,,,"634,000,000",,,,"564,000,000",,,,"503,600,000",,,,"520,100,000",,,,"516,600,000",,,,,,,,,,,,,,,,,,,,,,,,,
		CurrentProvisions,"171,000,000","173,000,000","187,000,000","206,000,000",,,,,,,,,,,,,,,,,,,,,,,,,,,,,,,,,,,,,,,,,,,,,,,,,,,,,,,,,,,,,,,,,,,,,,,,,,,,,,,,,,,,,,,,,,,,,,,,,,,,,,,,,,,,,,,,,,,,,,,,,,,,,,,,,,,
		PensionandOtherPostRetirementBenefitPlansCurrent,,"87,000,000",,,,"85,000,000",,,,"85,000,000",,,,"80,000,000",,,,"78,000,000",,,,"124,000,000",,,,"130,000,000",,,,"94,000,000",,,,"93,000,000",,,,"103,000,000",,,,,,,,,,,,,,,,,,,,,,,,,,,,,,,,,,,,,,,,,,,,,,,,,,,,,,,,,,,,,,,,,,,,,,,,,,,,,,,,,,,,,,,,,,,,,,,,,
		CurrentDebtAndCapitalLeaseObligation,"509,000,000","201,000,000","898,000,000","964,000,000","1,061,000,000","758,000,000","849,000,000","1,859,000,000","1,622,000,000","683,000,000","801,000,000","821,000,000","821,000,000","651,000,000","15,000,000","22,000,000","19,000,000","12,000,000","616,000,000","619,000,000","604,000,000","629,000,000","652,000,000","686,000,000","38,000,000","283,000,000","302,000,000","293,000,000","621,000,000","481,000,000","394,000,000","425,000,000","19,000,000","34,000,000","27,000,000","24,000,000","48,000,000","642,000,000","636,000,000","647,000,000","669,000,000","108,000,000","102,000,000","111,000,000","96,000,000","28,000,000","69,000,000","59,000,000","112,000,000","272,000,000","455,000,000","896,000,000","869,000,000","903,000,000","726,000,000","816,000,000","805,000,000","1,819,000,000","178,000,000","216,000,000","306,000,000","140,000,000","118,000,000","139,000,000","86,000,000","101,000,000","72,000,000","164,000,000","161,000,000","166,000,000","165,000,000","348,000,000","347,000,000","327,000,000","385,000,000","234,000,000","332,000,000","352,000,000","494,000,000","627,000,000","735,000,000","696,000,000","944,000,000","1,116,000,000","1,284,000,000","1,161,000,000","1,024,000,000","1,018,000,000","1,105,000,000","954,000,000","872,000,000","711,000,000","777,000,000","637,000,000","335,000,000","512,000,000","522,000,000","444,000,000","566,000,000","598,000,000","590,200,000","648,300,000","584,700,000","761,200,000","689,400,000","485,300,000","444,600,000","370,000,000","382,200,000","370,700,000","300,700,000","381,000,000","475,800,000","355,100,000","433,900,000","522,100,000","522,200,000","434,400,000","451,600,000","374,400,000","486,300,000","410,400,000","341,900,000","450,100,000","596,000,000","431,800,000","667,600,000","691,900,000","540,300,000","441,100,000","273,000,000","426,400,000","509,500,000","345,800,000","238,700,000"
			CurrentDebt,"319,000,000","9,000,000","704,000,000","770,000,000","881,000,000","578,000,000","675,000,000","1,688,000,000","1,456,000,000","513,000,000","639,000,000","654,000,000","653,000,000","651,000,000","15,000,000","22,000,000","19,000,000","12,000,000","616,000,000","619,000,000","604,000,000","629,000,000","652,000,000","686,000,000","38,000,000","283,000,000","302,000,000","293,000,000","621,000,000","481,000,000","394,000,000","425,000,000","19,000,000","34,000,000","27,000,000","24,000,000","48,000,000","642,000,000","636,000,000","647,000,000","669,000,000","108,000,000","102,000,000","111,000,000","96,000,000","28,000,000","69,000,000","59,000,000","112,000,000","272,000,000","455,000,000","896,000,000","869,000,000","903,000,000","726,000,000","816,000,000","805,000,000","1,819,000,000","178,000,000","216,000,000","306,000,000","140,000,000","118,000,000","139,000,000","86,000,000","101,000,000","72,000,000","164,000,000","161,000,000","166,000,000","165,000,000","348,000,000","347,000,000","327,000,000","385,000,000","234,000,000","332,000,000","352,000,000","494,000,000","627,000,000","735,000,000","696,000,000","944,000,000","1,116,000,000","1,284,000,000","1,161,000,000","1,024,000,000","1,018,000,000","1,105,000,000","954,000,000","872,000,000","711,000,000","777,000,000","637,000,000","335,000,000","512,000,000","522,000,000","444,000,000","566,000,000","598,000,000","590,200,000","648,300,000","584,700,000","761,200,000","689,400,000","485,300,000","444,600,000","370,000,000","382,200,000","370,700,000","300,700,000","381,000,000","475,800,000","355,100,000","433,900,000","522,100,000","522,200,000","434,400,000","451,600,000","374,400,000","486,300,000","410,400,000","341,900,000","450,100,000","596,000,000","431,800,000","667,600,000","691,900,000","540,300,000","441,100,000","273,000,000","426,400,000","509,500,000","345,800,000","238,700,000"
				CurrentNotesPayable,,,,,,,,,,,,,,,,,,,,,,,,,,,,,,,,,,,,,,,,,,,,,,,,,,,,,,,,,,,,,,"140,000,000",,,"86,000,000","101,000,000",,,,,,,,,,,,,,,,,,,,,,,,,,,,,,,,,,,,,,,,,,,,,,,,,,,,,,,,,,,,,,,,,,,,,
				OtherCurrentBorrowings,"319,000,000","9,000,000","704,000,000","770,000,000","881,000,000","578,000,000","675,000,000","1,688,000,000","1,456,000,000","513,000,000","639,000,000","654,000,000","653,000,000",,,,,,,,,,,,,,,,,,,,,,,,,,,,,,,,,,,,,,,,,,,,,,,,,,,,,,,,,,,,,,,,,,,,,,,,,,,,,,,,,,,,,,,,,,,,,,,,,,,,,,,,,,,,,,,,,,,,,,,,,,
			CurrentCapitalLeaseObligation,"190,000,000","192,000,000","194,000,000","194,000,000","180,000,000","180,000,000","174,000,000","171,000,000","166,000,000","170,000,000","162,000,000","167,000,000","168,000,000",,,,,,,,,,,,,,,,,,,,,,,,,,,,,,,,,,,,,,,,,,,,,,,,,,,,,,,,,,,,,,,,,,,,,,,,,,,,,,,,,,,,,,,,,,,,,,,,,,,,,,,,,,,,,,,,,,,,,,,,,,
		OtherCurrentLiabilities,,"374,000,000",,,"244,000,000","281,000,000","282,000,000","320,000,000","206,000,000","196,000,000","141,000,000","139,000,000","83,000,000","99,000,000","112,000,000","132,000,000","87,000,000","102,000,000","107,000,000","169,000,000","96,000,000","101,000,000","241,000,000","112,000,000","902,000,000","883,000,000","857,000,000","942,000,000","823,000,000","847,000,000","815,000,000","846,000,000","835,000,000","836,000,000","832,000,000","739,000,000","730,000,000","758,000,000","749,000,000","758,000,000","756,000,000","1,208,000,000","581,000,000","612,000,000","608,000,000","595,000,000","594,000,000","590,000,000","621,000,000","657,000,000","694,000,000","693,000,000","687,000,000","491,000,000","615,000,000","613,000,000","684,000,000","692,000,000","743,000,000","601,000,000","565,000,000","557,000,000","561,000,000","560,000,000","480,000,000","472,000,000","474,000,000","479,000,000","409,000,000","404,000,000","394,000,000","396,000,000","300,000,000","308,000,000","291,000,000","289,000,000","183,000,000","190,000,000","182,000,000","206,000,000",,,,,,,,,,,"40,000,000","36,000,000","66,000,000","11,000,000","31,000,000","35,000,000","84,000,000","8,000,000","9,000,000","38,000,000","81,200,000","15,100,000","37,200,000","18,600,000","97,200,000","40,600,000","39,400,000","64,800,000","134,700,000","19,400,000","17,500,000","100,000","54,600,000","4,700,000","4,500,000","33,800,000","52,300,000","371,600,000","28,100,000","41,600,000","40,900,000","15,000,000","8,500,000","8,400,000","10,400,000","23,000,000","23,900,000","32,100,000","85,300,000","45,200,000","18,700,000","838,100,000","765,300,000","629,900,000","584,900,000"
	TotalNonCurrentLiabilitiesNetMinorityInterest,"10,383,000,000","10,174,000,000","10,010,000,000","10,454,000,000","9,050,000,000","8,910,000,000","8,263,000,000","7,998,000,000","8,032,000,000","7,930,000,000","8,131,000,000","8,062,000,000","7,773,000,000","6,910,000,000","7,707,000,000","7,764,000,000","8,047,000,000","6,971,000,000","6,987,000,000","6,801,000,000","6,595,000,000","6,616,000,000","6,909,000,000","7,440,000,000","7,511,000,000","7,351,000,000","7,608,000,000","7,515,000,000","7,437,000,000","7,442,000,000","5,986,000,000","6,017,000,000","6,462,000,000","6,530,000,000","6,795,000,000","6,659,000,000","6,608,000,000","7,095,000,000","6,984,000,000","6,577,000,000","6,760,000,000","7,234,000,000","6,849,000,000","7,057,000,000","7,359,000,000","7,517,000,000","6,495,000,000","6,354,000,000","6,549,000,000","6,741,000,000","6,966,000,000","7,095,000,000","6,630,000,000","7,155,000,000","6,207,000,000","6,644,000,000","6,854,000,000","3,684,000,000","3,732,000,000","3,853,000,000","3,795,000,000","3,852,000,000","3,406,000,000","3,258,000,000","3,233,000,000","3,171,000,000","3,011,000,000","3,023,000,000","3,037,000,000","3,043,000,000","3,008,000,000","3,087,000,000","3,278,000,000","3,237,000,000","3,410,000,000","3,691,000,000","3,726,000,000","3,662,000,000","3,607,000,000","3,650,000,000","3,254,000,000","3,295,000,000","3,286,000,000","3,250,000,000","3,258,000,000","3,357,000,000","3,296,000,000","3,289,000,000","3,325,000,000","3,326,000,000","3,357,000,000","2,498,000,000","2,496,000,000","2,508,000,000","2,596,000,000","2,643,000,000","2,594,000,000","2,615,000,000","2,317,000,000","2,291,000,000","2,296,300,000","2,113,700,000","2,095,300,000","2,085,800,000","1,920,200,000","1,927,500,000","1,894,900,000","1,772,200,000","1,750,800,000","1,842,100,000","1,821,800,000","1,821,500,000","1,870,400,000","1,845,500,000","1,907,400,000","1,848,200,000","1,993,800,000","1,649,500,000","1,831,000,000","1,944,800,000","1,921,400,000","1,985,700,000","2,107,800,000","2,068,000,000","1,944,600,000","2,021,800,000","1,898,500,000","1,748,900,000","1,890,600,000","1,961,400,000","1,939,700,000","1,646,200,000","1,669,600,000","1,687,900,000","1,554,900,000"
		LongTermDebtAndCapitalLeaseObligation,"7,518,000,000","7,265,000,000","6,801,000,000","7,123,000,000","6,012,000,000","5,848,000,000","5,498,000,000","5,282,000,000","5,378,000,000","5,161,000,000","5,473,000,000","5,417,000,000","5,192,000,000","4,365,000,000","5,023,000,000","5,048,000,000","5,199,000,000","4,134,000,000","4,089,000,000","3,998,000,000","3,817,000,000","3,787,000,000","3,752,000,000","4,426,000,000","4,226,000,000","4,042,000,000","4,250,000,000","4,222,000,000","4,023,000,000","3,544,000,000","2,954,000,000","2,958,000,000","3,373,000,000","3,372,000,000","3,368,000,000","3,355,000,000","3,353,000,000","3,368,000,000","3,365,000,000","2,964,000,000","2,988,000,000","3,574,000,000","3,590,000,000","3,613,000,000","3,993,000,000","4,043,000,000","3,066,000,000","3,017,000,000","3,051,000,000","3,074,000,000","3,082,000,000","3,306,000,000","2,986,000,000","3,009,000,000","3,221,000,000","3,440,000,000","3,639,000,000","1,201,000,000","1,181,000,000","1,151,000,000","1,158,000,000","1,155,000,000","1,195,000,000","1,196,000,000","1,174,000,000","1,169,000,000","1,181,000,000","1,188,000,000","1,137,000,000","1,184,000,000","1,200,000,000","1,295,000,000","1,329,000,000","1,339,000,000","1,356,000,000","1,684,000,000","1,699,000,000","1,699,000,000","1,707,000,000","1,690,000,000","1,679,000,000","1,699,000,000","1,720,000,000","1,703,000,000","1,701,000,000","1,810,000,000","1,820,000,000","1,824,000,000","1,825,000,000","1,836,000,000","1,849,000,000","1,051,000,000","1,066,000,000","1,081,000,000","1,203,000,000","1,223,000,000","1,230,000,000","1,257,000,000","990,000,000","980,000,000","1,008,300,000","833,900,000","843,100,000","848,600,000","712,400,000","735,500,000","744,500,000","652,800,000","655,500,000","773,400,000","767,700,000","769,100,000","771,900,000","774,000,000","781,400,000","790,800,000","865,400,000","872,300,000","1,011,200,000","1,103,500,000","1,096,000,000","1,163,200,000","1,286,100,000","1,266,700,000","1,139,500,000","1,186,200,000","1,070,100,000","920,000,000","1,087,100,000","1,177,500,000","1,156,300,000","876,900,000","903,300,000","1,008,400,000","983,300,000"
			LongTermDebt,"6,834,000,000","6,572,000,000","6,092,000,000","6,387,000,000","5,336,000,000","5,171,000,000","4,828,000,000","4,613,000,000","4,751,000,000","4,539,000,000","4,885,000,000","4,845,000,000","4,626,000,000","4,365,000,000","5,023,000,000","5,048,000,000","5,199,000,000","4,134,000,000","4,089,000,000","3,998,000,000","3,817,000,000","3,787,000,000","3,752,000,000","4,426,000,000","4,226,000,000","4,042,000,000","4,250,000,000","4,222,000,000","4,023,000,000","3,544,000,000","2,954,000,000","2,958,000,000","3,373,000,000","3,372,000,000","3,368,000,000","3,355,000,000","3,353,000,000","3,368,000,000","3,365,000,000","2,964,000,000","2,988,000,000","3,574,000,000","3,590,000,000","3,613,000,000","3,993,000,000","4,043,000,000","3,066,000,000","3,017,000,000","3,051,000,000","3,074,000,000","3,082,000,000","3,306,000,000","2,986,000,000","3,009,000,000","3,221,000,000","3,440,000,000","3,639,000,000","1,201,000,000","1,181,000,000","1,151,000,000","1,158,000,000","1,155,000,000","1,195,000,000","1,196,000,000","1,174,000,000","1,169,000,000","1,181,000,000","1,188,000,000","1,137,000,000","1,184,000,000","1,200,000,000","1,295,000,000","1,329,000,000","1,339,000,000","1,356,000,000","1,684,000,000","1,699,000,000","1,689,000,000","1,707,000,000","1,690,000,000","1,679,000,000","1,689,000,000","1,720,000,000","1,703,000,000","1,701,000,000","1,800,000,000","1,820,000,000","1,824,000,000","1,825,000,000","1,826,000,000","1,849,000,000","1,051,000,000","1,066,000,000","1,047,000,000","1,203,000,000","1,223,000,000","1,230,000,000","1,216,000,000","990,000,000","980,000,000","1,008,300,000","806,100,000","843,100,000","848,600,000","712,400,000","706,800,000","744,500,000","652,800,000","655,500,000","745,000,000","767,700,000","769,100,000","771,900,000","774,000,000","781,400,000","790,800,000","865,400,000","872,300,000","1,011,200,000","1,103,500,000","1,096,000,000","1,163,200,000","1,286,100,000","1,266,700,000","1,139,500,000","1,186,200,000","1,070,100,000","920,000,000","1,087,100,000","1,177,500,000","1,156,300,000","876,900,000","903,300,000","1,008,400,000","983,300,000"
			LongTermCapitalLeaseObligation,"684,000,000","693,000,000","709,000,000","736,000,000","676,000,000","677,000,000","670,000,000","669,000,000","627,000,000","622,000,000","588,000,000","572,000,000","566,000,000",,,,,,,,,,,,,,,,,,,,,,,,,,,,,,,,,,,,,,,,,,,,,,,,,,,,,,,,,,,,,,,,,"10,000,000",,,,"10,000,000",,,,"10,000,000",,,,"10,000,000",,,,"34,000,000",,,,"41,000,000",,,,"27,800,000",,,,"28,700,000",,,,"28,400,000",,,,,,,,,,,,,,,,,,,,,,,,,
		NonCurrentDeferredLiabilities,"667,000,000","646,000,000","642,000,000","683,000,000","422,000,000","435,000,000","436,000,000","397,000,000","399,000,000","452,000,000","455,000,000","382,000,000","447,000,000","429,000,000","460,000,000","425,000,000","471,000,000","442,000,000","445,000,000","390,000,000","400,000,000","417,000,000","521,000,000","546,000,000","479,000,000","460,000,000","506,000,000","501,000,000","624,000,000","702,000,000","241,000,000","271,000,000","281,000,000","249,000,000","216,000,000","224,000,000","235,000,000","231,000,000","263,000,000","241,000,000","262,000,000","272,000,000","286,000,000","305,000,000","302,000,000","293,000,000","316,000,000","301,000,000","319,000,000","328,000,000","336,000,000","293,000,000","277,000,000","425,000,000","495,000,000","618,000,000","616,000,000","164,000,000","156,000,000","146,000,000","144,000,000","136,000,000","156,000,000","122,000,000","92,000,000","90,000,000","128,000,000","131,000,000","140,000,000","145,000,000","102,000,000","97,000,000","99,000,000","88,000,000","75,000,000","71,000,000","66,000,000","64,000,000","346,000,000","349,000,000","523,000,000","552,000,000","555,000,000","539,000,000","547,000,000","543,000,000","480,000,000","461,000,000","490,000,000","520,000,000","495,000,000","451,000,000","434,000,000","440,000,000","429,000,000","445,000,000","409,000,000","406,000,000","411,000,000","417,000,000","411,400,000","419,100,000","379,300,000","371,600,000","346,000,000","354,900,000","355,000,000","317,400,000","303,700,000","302,700,000","280,300,000","272,000,000","277,500,000","268,600,000","232,500,000","217,300,000","256,300,000","471,600,000","481,300,000","487,700,000","477,300,000","475,600,000","460,500,000","454,600,000","460,800,000","460,900,000","447,600,000","453,300,000","442,000,000","416,900,000","432,900,000","399,400,000","370,400,000","367,700,000",
			NonCurrentDeferredTaxesLiabilities,"667,000,000","646,000,000","642,000,000","683,000,000","422,000,000","435,000,000","436,000,000","397,000,000","399,000,000","452,000,000","455,000,000","382,000,000","447,000,000","429,000,000","460,000,000","425,000,000","471,000,000","442,000,000","445,000,000","390,000,000","400,000,000","417,000,000","521,000,000","546,000,000","479,000,000","460,000,000","506,000,000","501,000,000","624,000,000","702,000,000","241,000,000","271,000,000","281,000,000","249,000,000","216,000,000","224,000,000","235,000,000","231,000,000","263,000,000","241,000,000","262,000,000","272,000,000","286,000,000","305,000,000","302,000,000","293,000,000","316,000,000","301,000,000","319,000,000","328,000,000","336,000,000","293,000,000","277,000,000","425,000,000","495,000,000","618,000,000","616,000,000","164,000,000","156,000,000","146,000,000","144,000,000","136,000,000","156,000,000","122,000,000","92,000,000","90,000,000","128,000,000","131,000,000","140,000,000","145,000,000","102,000,000","97,000,000","99,000,000","88,000,000","75,000,000","71,000,000","66,000,000","64,000,000","346,000,000","349,000,000","523,000,000","552,000,000","555,000,000","539,000,000","547,000,000","543,000,000","480,000,000","461,000,000","490,000,000","520,000,000","495,000,000","451,000,000","434,000,000","440,000,000","429,000,000","445,000,000","409,000,000","406,000,000","411,000,000","417,000,000","411,400,000","419,100,000","379,300,000","371,600,000","346,000,000","354,900,000","355,000,000","317,400,000","303,700,000","302,700,000","280,300,000","272,000,000","277,500,000","268,600,000","232,500,000","217,300,000","256,300,000","471,600,000","481,300,000","487,700,000","477,300,000","475,600,000","460,500,000","454,600,000","460,800,000","460,900,000","447,600,000","453,300,000","442,000,000","416,900,000","432,900,000","399,400,000","370,400,000","367,700,000",
		NonCurrentAccruedExpenses,,,,,,,,,,,,,,,,,,,,,,,,,,,,,,,,,,,,,,,,,"961,000,000",,,"707,000,000","675,000,000","819,000,000","770,000,000","904,000,000","914,000,000","944,000,000","993,000,000","1,086,000,000","1,075,000,000","1,250,000,000",,,,,,,,,,,,,,,,,,,,,,,,,,,,,,,,,,,,,,,,,,,,,,,,,,,,,,,,,,,,,,,,,,,,,,,,,,,,,,,,,
		EmployeeBenefits,"1,489,000,000","1,506,000,000","1,651,000,000","1,671,000,000","1,655,000,000","1,678,000,000","1,364,000,000","1,383,000,000","1,393,000,000","1,406,000,000","1,243,000,000","1,258,000,000","1,269,000,000","1,274,000,000","1,311,000,000","1,362,000,000","1,392,000,000","1,428,000,000","1,525,000,000","1,503,000,000","1,439,000,000","1,471,000,000","1,812,000,000","1,631,000,000","1,699,000,000","1,733,000,000","1,778,000,000","1,798,000,000","1,781,000,000","2,127,000,000","1,725,000,000","1,747,000,000","1,724,000,000","1,735,000,000","2,029,000,000","2,030,000,000","1,977,000,000","2,344,000,000","2,218,000,000","2,213,000,000","1,312,000,000","2,275,000,000","1,828,000,000","1,162,000,000","1,159,000,000","1,151,000,000","1,050,000,000","1,045,000,000","1,016,000,000","1,010,000,000","1,095,000,000","1,088,000,000","1,078,000,000","1,072,000,000",,,,,,,,,,,,,,,,,,,,,,,,,,,,,,,,,,,,,,,,,,,,,,,,,,,,,,,,,,,,,,,,,,,,,,,,,,,,,,,,,
			NonCurrentPensionAndOtherPostretirementBenefitPlans,"1,489,000,000","1,506,000,000","1,651,000,000","1,671,000,000","1,655,000,000","1,678,000,000","1,364,000,000","1,383,000,000","1,393,000,000","1,406,000,000","1,243,000,000","1,258,000,000","1,269,000,000","1,274,000,000","1,311,000,000","1,362,000,000","1,392,000,000","1,428,000,000","1,525,000,000","1,503,000,000","1,439,000,000","1,471,000,000","1,812,000,000","1,631,000,000","1,699,000,000","1,733,000,000","1,778,000,000","1,798,000,000","1,781,000,000","2,127,000,000","1,725,000,000","1,747,000,000","1,724,000,000","1,735,000,000","2,029,000,000","2,030,000,000","1,977,000,000","2,344,000,000","2,218,000,000","2,213,000,000","1,312,000,000","2,275,000,000","1,828,000,000","1,162,000,000","1,159,000,000","1,151,000,000","1,050,000,000","1,045,000,000","1,016,000,000","1,010,000,000","1,095,000,000","1,088,000,000","1,078,000,000","1,072,000,000",,,,,,,,,,,,,,,,,,,,,,,,,,,,,,,,,,,,,,,,,,,,,,,,,,,,,,,,,,,,,,,,,,,,,,,,,,,,,,,,,
		OtherNonCurrentLiabilities,"709,000,000","757,000,000","916,000,000","977,000,000","961,000,000","949,000,000","965,000,000","936,000,000","862,000,000","911,000,000","960,000,000","1,005,000,000","865,000,000","842,000,000","913,000,000","929,000,000","985,000,000","967,000,000","928,000,000","910,000,000","939,000,000","941,000,000","824,000,000","837,000,000","1,107,000,000","1,116,000,000","1,074,000,000","994,000,000","1,009,000,000","1,069,000,000","1,066,000,000","1,041,000,000","1,084,000,000","1,174,000,000","1,182,000,000","1,050,000,000","1,043,000,000","1,152,000,000","1,138,000,000","1,159,000,000","1,237,000,000","1,113,000,000","1,145,000,000","1,270,000,000","1,230,000,000","1,211,000,000","1,293,000,000","1,087,000,000","1,249,000,000","1,385,000,000","1,460,000,000","1,322,000,000","1,214,000,000","1,399,000,000","2,491,000,000","2,586,000,000","2,599,000,000","2,319,000,000","2,395,000,000","2,556,000,000","2,493,000,000","2,561,000,000","2,055,000,000","1,940,000,000","1,967,000,000","1,912,000,000","1,702,000,000","1,704,000,000","1,760,000,000","1,714,000,000","1,706,000,000","1,695,000,000","1,850,000,000","1,810,000,000","1,979,000,000","1,936,000,000","1,961,000,000","1,899,000,000","1,554,000,000","1,611,000,000","1,052,000,000","1,044,000,000","1,011,000,000","1,008,000,000","1,010,000,000","1,004,000,000","996,000,000","1,004,000,000","1,010,000,000","970,000,000","1,013,000,000","996,000,000","996,000,000","987,000,000","964,000,000","975,000,000","955,000,000","952,000,000","916,000,000","894,000,000","876,600,000","860,700,000","872,900,000","865,600,000","861,800,000","837,100,000","795,400,000","802,000,000","791,600,000","766,000,000","773,800,000","780,400,000","821,000,000","802,900,000","893,500,000","840,100,000","872,100,000","305,600,000","338,500,000","353,600,000","348,100,000","346,900,000","361,200,000","346,700,000","344,300,000","374,700,000","380,800,000","375,600,000","361,500,000","367,000,000","350,500,000","369,900,000","395,900,000","311,800,000","571,600,000"
TotalEquityGrossMinorityInterest,"6,333,000,000","6,411,000,000","6,410,000,000","6,411,000,000","5,969,000,000","5,815,000,000","5,424,000,000","4,938,000,000","4,837,000,000","5,403,000,000","5,355,000,000","5,187,000,000","5,010,000,000","4,732,000,000","5,078,000,000","4,983,000,000","5,467,000,000","5,673,000,000","6,010,000,000","5,735,000,000","5,286,000,000","4,913,000,000","5,121,000,000","5,433,000,000","5,248,000,000","5,069,000,000","5,196,000,000","5,256,000,000","5,158,000,000","5,265,000,000","6,205,000,000","6,321,000,000","6,089,000,000","5,198,000,000","5,481,000,000","5,301,000,000","5,041,000,000","4,322,000,000","4,132,000,000","3,675,000,000","3,516,000,000","3,446,000,000","3,906,000,000","4,288,000,000","3,995,000,000","3,833,000,000","4,102,000,000","3,639,000,000","3,789,000,000","3,922,000,000","3,734,000,000","3,368,000,000","3,003,000,000","3,333,000,000","4,370,000,000","4,818,000,000","4,553,000,000","4,284,000,000","4,143,000,000","3,869,000,000","3,601,000,000","3,382,000,000","3,613,000,000","3,606,000,000","3,341,000,000","3,161,000,000","3,448,000,000","3,534,000,000","3,664,000,000","3,668,000,000","3,369,000,000","3,176,000,000","3,088,000,000","3,048,000,000","2,658,000,000","2,585,000,000","2,381,000,000","2,281,000,000","2,907,000,000","2,859,000,000","3,165,000,000","3,202,000,000","3,230,000,000","3,197,000,000","3,145,000,000","3,225,000,000","3,273,000,000","3,331,000,000","3,239,000,000","3,204,000,000","3,102,000,000","3,026,000,000","2,894,000,000","2,967,000,000","3,007,000,000","2,789,000,000","2,694,000,000","2,591,000,000","2,565,000,000","2,544,000,000","2,530,100,000","2,558,800,000","2,637,100,000","2,555,600,000","2,573,300,000","2,637,400,000","2,713,200,000","2,892,500,000","2,820,900,000","2,627,300,000","2,755,000,000","2,632,900,000","2,571,500,000","2,525,000,000","2,517,300,000","2,575,300,000","2,538,100,000","2,759,200,000","2,841,200,000","2,824,000,000","2,705,500,000","2,730,000,000","2,683,300,000","2,605,700,000","2,605,700,000","2,615,900,000","2,526,800,000","2,476,600,000","2,397,300,000","2,346,300,000","2,256,600,000","2,243,400,000","2,043,500,000","1,977,800,000","1,705,300,000"
	StockholdersEquity,"6,218,000,000","6,286,000,000","6,253,000,000","6,242,000,000","5,839,000,000","5,689,000,000","5,310,000,000","4,832,000,000","4,723,000,000","5,284,000,000","5,247,000,000","5,079,000,000","4,904,000,000","4,630,000,000","4,980,000,000","4,884,000,000","5,346,000,000","5,558,000,000","5,902,000,000","5,630,000,000","5,192,000,000","4,826,000,000","5,031,000,000","5,346,000,000","5,161,000,000","4,983,000,000","5,111,000,000","5,171,000,000","5,078,000,000","5,180,000,000","6,121,000,000","6,232,000,000","5,992,000,000","4,932,000,000","5,211,000,000","5,042,000,000","4,787,000,000","4,063,000,000","3,861,000,000","3,461,000,000","3,293,000,000","3,249,000,000","3,662,000,000","4,054,000,000","3,766,000,000","3,638,000,000","3,874,000,000","3,450,000,000","3,592,000,000","3,753,000,000","3,538,000,000","3,175,000,000","2,830,000,000","3,333,000,000","4,204,000,000","4,624,000,000","4,374,000,000","4,151,000,000","4,003,000,000","3,685,000,000","3,436,000,000","3,234,000,000","3,483,000,000","3,477,000,000","3,214,000,000","3,053,000,000","3,318,000,000","3,413,000,000","3,549,000,000","3,572,000,000","3,255,000,000","3,060,000,000","2,972,000,000","2,911,000,000","2,522,000,000","2,430,000,000","2,236,000,000","2,150,000,000","2,773,000,000","2,725,000,000","3,037,000,000","3,080,000,000","3,103,000,000","3,062,000,000","3,014,000,000","3,097,000,000","3,139,000,000","3,226,000,000","3,137,000,000","3,106,000,000","3,001,000,000","2,935,000,000","2,797,000,000","2,880,000,000","2,921,000,000","2,703,000,000","2,607,000,000","2,509,000,000","2,483,000,000","2,464,000,000","2,452,800,000","2,482,600,000","2,562,500,000","2,481,000,000","2,499,800,000","2,569,200,000","2,641,000,000","2,815,700,000","2,746,600,000","2,557,000,000","2,689,900,000","2,573,300,000","2,515,400,000","2,473,100,000","2,465,500,000","2,528,100,000","2,489,200,000","2,698,900,000","2,773,400,000","2,748,900,000","2,629,800,000","2,654,500,000","2,613,200,000","2,539,200,000","2,532,800,000","2,546,500,000","2,459,800,000","2,415,000,000","2,331,100,000","2,282,300,000","2,191,400,000","2,243,400,000","2,043,500,000","1,977,800,000","1,705,300,000"
		CapitalStock,"969,000,000","969,000,000","969,000,000","969,000,000","969,000,000","969,000,000","969,000,000","969,000,000","969,000,000","969,000,000","969,000,000","969,000,000","969,000,000","969,000,000","969,000,000","969,000,000","969,000,000","969,000,000","969,000,000","969,000,000","969,000,000","969,000,000","969,000,000","969,000,000","969,000,000","969,000,000","969,000,000","969,000,000","484,000,000","484,000,000","484,000,000","484,000,000","484,000,000","484,000,000","484,000,000","484,000,000","484,000,000","484,000,000","484,000,000","484,000,000","484,000,000","484,000,000","484,000,000","484,000,000","484,000,000","484,000,000","484,000,000","484,000,000","484,000,000","484,000,000","484,000,000","484,000,000","484,000,000","484,000,000","484,000,000","484,000,000","484,000,000","484,000,000","484,000,000","484,000,000","484,000,000","484,000,000","484,000,000","484,000,000","484,000,000","484,000,000","484,000,000","484,000,000","484,000,000","484,000,000","484,000,000","484,000,000","484,000,000","484,000,000","484,000,000","484,000,000","484,000,000","484,000,000","484,000,000","484,000,000","484,000,000","484,000,000","484,000,000","484,000,000","484,000,000","484,000,000","484,000,000","484,000,000","484,000,000","484,000,000","484,000,000","484,000,000","484,000,000","484,000,000","484,000,000","484,000,000","484,000,000","484,000,000","484,000,000","484,000,000","484,300,000","484,300,000","484,300,000","484,300,000","484,300,000","484,300,000","484,300,000","484,300,000","484,300,000","484,300,000","484,300,000","484,300,000","242,100,000",,,,,,,,,,,,,,,,,,,,,,
			CommonStock,"969,000,000","969,000,000","969,000,000","969,000,000","969,000,000","969,000,000","969,000,000","969,000,000","969,000,000","969,000,000","969,000,000","969,000,000","969,000,000","969,000,000","969,000,000","969,000,000","969,000,000","969,000,000","969,000,000","969,000,000","969,000,000","969,000,000","969,000,000","969,000,000","969,000,000","969,000,000","969,000,000","969,000,000","484,000,000","484,000,000","484,000,000","484,000,000","484,000,000","484,000,000","484,000,000","484,000,000","484,000,000","484,000,000","484,000,000","484,000,000","484,000,000","484,000,000","484,000,000","484,000,000","484,000,000","484,000,000","484,000,000","484,000,000","484,000,000","484,000,000","484,000,000","484,000,000","484,000,000","484,000,000","484,000,000","484,000,000","484,000,000","484,000,000","484,000,000","484,000,000","484,000,000","484,000,000","484,000,000","484,000,000","484,000,000","484,000,000","484,000,000","484,000,000","484,000,000","484,000,000","484,000,000","484,000,000","484,000,000","484,000,000","484,000,000","484,000,000","484,000,000","484,000,000","484,000,000","484,000,000","484,000,000","484,000,000","484,000,000","484,000,000","484,000,000","484,000,000","484,000,000","484,000,000","484,000,000","484,000,000","484,000,000","484,000,000","484,000,000","484,000,000","484,000,000","484,000,000","484,000,000","484,000,000","484,000,000","484,000,000","484,300,000","484,300,000","484,300,000","484,300,000","484,300,000","484,300,000","484,300,000","484,300,000","484,300,000","484,300,000","484,300,000","484,300,000","242,100,000",,,,,,,,,,,,,,,,,,,,,,
		AdditionalPaidInCapital,"1,093,000,000","1,081,000,000","1,065,000,000","1,053,000,000","1,029,000,000","1,008,000,000","980,000,000","962,000,000","954,000,000","950,000,000","925,000,000","913,000,000","899,000,000","788,000,000","772,000,000","769,000,000","761,000,000","756,000,000","745,000,000","723,000,000","711,000,000","701,000,000","683,000,000","668,000,000","648,000,000","635,000,000","624,000,000","612,000,000","1,073,000,000","1,028,000,000","1,001,000,000","983,000,000","989,000,000","953,000,000","936,000,000","907,000,000","888,000,000","870,000,000","851,000,000","815,000,000","797,000,000","783,000,000","771,000,000","759,000,000","742,000,000","725,000,000","679,000,000","597,000,000","580,000,000","609,000,000","562,000,000","522,000,000","514,000,000","580,000,000","573,000,000","561,000,000","554,000,000","553,000,000","534,000,000","497,000,000","442,000,000","408,000,000","392,000,000","380,000,000","362,000,000","352,000,000","346,000,000","339,000,000","326,000,000","249,000,000","205,000,000","199,000,000","187,000,000","158,000,000","133,000,000","131,000,000","130,000,000","126,000,000","125,000,000","120,000,000","113,000,000","109,000,000","109,000,000","109,000,000","106,000,000","102,000,000","105,000,000","107,000,000","107,000,000","104,000,000","105,000,000","104,000,000","106,000,000","105,000,000","108,000,000","108,000,000","103,000,000","99,000,000","101,000,000","99,000,000","97,600,000","96,600,000","92,200,000","90,900,000","88,700,000","81,300,000","72,400,000","70,000,000","69,200,000","67,500,000","65,900,000","66,800,000","308,300,000",,,,,,,,,,,,,,,,,,,,,,
		RetainedEarnings,"20,251,000,000","20,372,000,000","20,226,000,000","20,022,000,000","19,719,000,000","19,469,000,000","19,325,000,000","19,010,000,000","19,029,000,000","18,906,000,000","18,735,000,000","18,488,000,000","18,330,000,000","18,131,000,000","17,987,000,000","17,725,000,000","17,464,000,000","17,141,000,000","17,106,000,000","16,613,000,000","16,214,000,000","15,984,000,000","15,744,000,000","16,034,000,000","15,770,000,000","15,521,000,000","15,302,000,000","14,966,000,000","14,728,000,000","14,498,000,000","14,506,000,000","14,227,000,000","13,934,000,000","12,757,000,000","12,589,000,000","12,450,000,000","12,196,000,000","9,871,000,000","9,734,000,000","9,486,000,000","9,213,000,000","9,288,000,000","9,159,000,000","8,938,000,000","8,687,000,000","8,548,000,000","8,433,000,000","8,262,000,000","8,080,000,000","8,139,000,000","8,088,000,000","8,017,000,000","7,958,000,000","8,156,000,000","8,172,000,000","8,141,000,000","7,976,000,000","7,963,000,000","7,848,000,000","7,742,000,000","7,576,000,000","7,453,000,000","7,375,000,000","7,364,000,000","7,163,000,000","7,057,000,000","7,021,000,000","6,944,000,000","6,793,000,000","6,776,000,000","6,670,000,000","6,545,000,000","6,439,000,000","6,399,000,000","6,350,000,000","6,282,000,000","6,203,000,000","6,197,000,000","6,174,000,000","6,099,000,000","6,514,000,000","6,551,000,000","6,538,000,000","6,515,000,000","6,430,000,000","6,444,000,000","6,385,000,000","6,303,000,000","6,168,000,000","6,098,000,000","6,001,000,000","5,968,000,000","5,849,000,000","5,791,000,000","5,692,000,000","5,508,000,000","5,371,000,000","5,239,000,000","5,139,000,000","5,026,000,000","4,866,400,000","4,759,800,000","4,665,500,000","4,533,200,000","4,364,200,000","4,249,000,000","4,145,900,000","4,036,900,000","3,877,200,000","3,717,100,000","3,626,500,000","3,539,700,000","3,502,200,000","3,436,800,000","3,445,500,000","3,477,000,000","3,423,100,000","3,631,800,000","3,614,200,000","3,588,900,000","3,533,800,000","3,501,100,000","3,515,900,000","3,489,100,000","3,452,400,000","3,397,700,000","3,337,900,000","3,273,200,000","3,175,000,000","3,088,800,000","3,023,100,000","2,781,200,000","2,459,500,000","2,213,900,000","2,009,300,000"
		TreasuryStock,"13,381,000,000","13,386,000,000","13,136,000,000","13,138,000,000","13,148,000,000","13,158,000,000","13,176,000,000","13,184,000,000","13,187,000,000","13,191,000,000","13,054,000,000","13,061,000,000","13,070,000,000","12,958,000,000","12,551,000,000","12,304,000,000","11,843,000,000","11,251,000,000","10,855,000,000","10,616,000,000","10,626,000,000","10,472,000,000","9,824,000,000","9,576,000,000","9,583,000,000","9,440,000,000","9,192,000,000","9,044,000,000","8,898,000,000","8,714,000,000","8,423,000,000","8,281,000,000","8,185,000,000","8,002,000,000","7,329,000,000","7,160,000,000","7,173,000,000","5,496,000,000","5,504,000,000","5,531,000,000","5,548,000,000","5,506,000,000","5,288,000,000","5,044,000,000","4,960,000,000","4,708,000,000","4,442,000,000","4,290,000,000","4,199,000,000","4,218,000,000","4,165,000,000","4,235,000,000","4,249,000,000","4,259,000,000","4,259,000,000","4,262,000,000","4,262,000,000","4,267,000,000","4,267,000,000","4,200,000,000","4,127,000,000","4,101,000,000","4,010,000,000","4,013,000,000","3,977,000,000","3,984,000,000","3,878,000,000","3,692,000,000","3,498,000,000","3,455,000,000","3,405,000,000","3,409,000,000","3,418,000,000","3,428,000,000","3,457,000,000","3,463,000,000","3,464,000,000","3,471,000,000","3,472,000,000","3,479,000,000","3,489,000,000","3,496,000,000","3,498,000,000","3,497,000,000","3,505,000,000","3,508,000,000","3,383,000,000","3,263,000,000","3,264,000,000","3,268,000,000","3,269,000,000","3,271,000,000","3,276,000,000","3,198,000,000","3,060,000,000","3,057,000,000","3,029,000,000","2,990,000,000","2,957,000,000","2,865,000,000","2,758,100,000","2,667,200,000","2,469,100,000","2,410,200,000","2,250,200,000","2,059,600,000","1,874,800,000","1,605,000,000","1,515,900,000","1,488,600,000","1,279,900,000","1,282,600,000","1,284,100,000",,,,,,,,,,,,,,,,,,,,,,
		GainsLossesNotAffectingRetainedEarnings,"-2,714,000,000","-2,750,000,000","-2,871,000,000","-2,664,000,000","-2,730,000,000","-2,599,000,000","-2,788,000,000","-2,925,000,000","-3,042,000,000","-2,350,000,000","-2,328,000,000","-2,230,000,000","-2,224,000,000","-2,300,000,000","-2,197,000,000","-2,275,000,000","-2,005,000,000","-2,057,000,000","-2,063,000,000","-2,059,000,000","-2,076,000,000","-2,356,000,000","-2,541,000,000","-2,749,000,000","-2,643,000,000","-2,702,000,000","-2,592,000,000","-2,332,000,000","-2,309,000,000","-2,116,000,000","-1,447,000,000","-1,181,000,000","-1,230,000,000","-1,260,000,000","-1,469,000,000","-1,639,000,000","-1,608,000,000","-1,666,000,000","-1,704,000,000","-1,793,000,000","-1,653,000,000","-1,800,000,000","-1,464,000,000","-1,083,000,000","-1,187,000,000","-1,411,000,000","-1,280,000,000","-1,603,000,000","-1,353,000,000","-1,261,000,000","-1,431,000,000","-1,613,000,000","-1,877,000,000","-1,628,000,000","-766,000,000","-300,000,000","-378,000,000","-582,000,000","-596,000,000","-838,000,000","-939,000,000","-1,010,000,000","-758,000,000","-738,000,000","-818,000,000","-856,000,000","-655,000,000","-662,000,000","-556,000,000","-482,000,000","-699,000,000","-759,000,000","-720,000,000","-702,000,000","-988,000,000","-1,004,000,000","-1,117,000,000","-1,186,000,000","-538,000,000","-499,000,000","-585,000,000","-568,000,000","-530,000,000","-549,000,000","-501,000,000","-425,000,000","-452,000,000","-405,000,000","-358,000,000","-312,000,000","-320,000,000","-350,000,000","-366,000,000","-302,000,000","-303,000,000","-340,000,000","-322,000,000","-323,000,000","-284,000,000","-280,000,000","-237,400,000","-190,900,000","-210,400,000","-217,200,000","-187,200,000","-185,800,000","-186,800,000","-170,500,000","-168,200,000","-223,300,000","-206,900,000","-234,900,000","-253,100,000",,,,,,,,,,,,,,,,,,,,,,
			ForeignCurrencyTranslationAdjustments,,,,,,,,,,,,,,,,,,,,,,,,,,,,,,,,,,,,,,,,,,,,,,,,,,,,,,,,,,,,,,,,,,,,,,,,,,,,,,"-340,000,000","-448,000,000",,,"-413,000,000","-368,000,000","-383,000,000","-365,000,000","-282,000,000","-307,000,000","-251,000,000","-218,000,000","-162,000,000","-143,000,000","-172,000,000","-193,000,000","-122,000,000","-120,000,000","-146,000,000","-147,000,000","-136,000,000","-99,000,000","-89,000,000","-67,700,000","-9,700,000","-13,400,000","-14,900,000","-4,900,000","3,800,000","4,100,000","23,400,000","6,400,000","-38,600,000","-2,300,000","-14,500,000","-38,300,000",,,,,,,,,,,,,,,,,,,,,,
			OtherEquityAdjustments,,,,,,,,,,,,,,,,,,,,,,,,,,,,,,,,,,,,,,,,,,,,,,,,,,,,,,,,,,,,,,,,,,,,,,,,,,,,,,"-846,000,000","-90,000,000",,,"-155,000,000","-162,000,000","-166,000,000","-136,000,000","-143,000,000","-145,000,000","-154,000,000","-140,000,000","-150,000,000","-177,000,000","-178,000,000","-173,000,000","-180,000,000","-183,000,000","-194,000,000","-175,000,000","-187,000,000","-185,000,000","-191,000,000","-169,700,000","-181,200,000","-197,000,000","-202,300,000","-182,300,000","-189,600,000","-190,900,000","-193,900,000","-174,600,000","-184,700,000","-204,600,000","-220,400,000","-214,800,000",,,,,,,,,,,,,,,,,,,,,,
		OtherEquityInterest,,,,,,,,,,,,,,,,,,,,,,,,,,,,,,,,,,,,,,,,,,,,,,,,,,,,,,,,,,,,,,,,,,,,,,,,,,,,,,,,,,,,,,,,,,,,,,,,,,,,,,,,,,,,,,,,,,"-963,700,000","-980,000,000","-948,900,000","-933,900,000","-932,900,000","-840,800,000","-840,000,000","-904,000,000","-846,600,000","-902,700,000","-949,900,000","-919,600,000","-851,200,000","-878,100,000","-858,200,000","-843,900,000","-806,500,000","-831,700,000","-537,800,000","-416,000,000","-236,100,000","-304,000,000"
	MinorityInterest,"115,000,000","125,000,000","157,000,000","169,000,000","130,000,000","126,000,000","114,000,000","106,000,000","114,000,000","119,000,000","108,000,000","108,000,000","106,000,000","102,000,000","98,000,000","99,000,000","121,000,000","115,000,000","108,000,000","105,000,000","94,000,000","87,000,000","90,000,000","87,000,000","87,000,000","86,000,000","85,000,000","85,000,000","80,000,000","85,000,000","84,000,000","89,000,000","97,000,000","266,000,000","270,000,000","259,000,000","254,000,000","259,000,000","271,000,000","214,000,000","223,000,000","197,000,000","244,000,000","234,000,000","229,000,000","195,000,000","228,000,000","189,000,000","197,000,000","169,000,000","196,000,000","193,000,000","173,000,000",,"166,000,000","194,000,000","179,000,000","133,000,000","140,000,000","184,000,000","165,000,000","148,000,000","130,000,000","129,000,000","127,000,000","108,000,000","130,000,000","121,000,000","115,000,000","96,000,000","114,000,000","116,000,000","116,000,000","137,000,000","136,000,000","155,000,000","145,000,000","131,000,000","134,000,000","134,000,000","128,000,000","122,000,000","127,000,000","135,000,000","131,000,000","128,000,000","134,000,000","105,000,000","102,000,000","98,000,000","101,000,000","91,000,000","97,000,000","87,000,000","86,000,000","86,000,000","87,000,000","82,000,000","82,000,000","80,000,000","77,300,000","76,200,000","74,600,000","74,600,000","73,500,000","68,200,000","72,200,000","76,800,000","74,300,000","70,300,000","65,100,000","59,600,000","56,100,000","51,900,000","51,800,000","47,200,000","48,900,000","60,300,000","67,800,000","75,100,000","75,700,000","75,500,000","70,100,000","66,500,000","72,900,000","69,400,000","67,000,000","61,600,000","66,200,000","64,000,000","65,200,000",,,,
TotalCapitalization,"13,052,000,000","12,858,000,000","12,345,000,000","12,629,000,000","11,175,000,000","10,860,000,000","10,138,000,000","9,445,000,000","9,474,000,000","9,823,000,000","10,132,000,000","9,924,000,000","9,530,000,000","8,995,000,000","10,003,000,000","9,932,000,000","10,545,000,000","9,692,000,000","9,991,000,000","9,628,000,000","9,009,000,000","8,613,000,000","8,783,000,000","9,772,000,000","9,387,000,000","9,025,000,000","9,361,000,000","9,393,000,000","9,101,000,000","8,724,000,000","9,075,000,000","9,190,000,000","9,365,000,000","8,304,000,000","8,579,000,000","8,397,000,000","8,140,000,000","7,431,000,000","7,226,000,000","6,425,000,000","6,281,000,000","6,823,000,000","7,252,000,000","7,667,000,000","7,759,000,000","7,681,000,000","6,940,000,000","6,467,000,000","6,643,000,000","6,827,000,000","6,620,000,000","6,481,000,000","5,816,000,000","6,342,000,000","7,425,000,000","8,064,000,000","8,013,000,000","5,352,000,000","5,184,000,000","4,836,000,000","4,594,000,000","4,389,000,000","4,678,000,000","4,673,000,000","4,388,000,000","4,222,000,000","4,499,000,000","4,601,000,000","4,686,000,000","4,756,000,000","4,455,000,000","4,355,000,000","4,301,000,000","4,250,000,000","3,878,000,000","4,114,000,000","3,935,000,000","3,839,000,000","4,480,000,000","4,415,000,000","4,716,000,000","4,769,000,000","4,823,000,000","4,765,000,000","4,715,000,000","4,897,000,000","4,959,000,000","5,050,000,000","4,962,000,000","4,932,000,000","4,850,000,000","3,986,000,000","3,863,000,000","3,927,000,000","4,124,000,000","3,926,000,000","3,837,000,000","3,725,000,000","3,473,000,000","3,444,000,000","3,461,100,000","3,288,700,000","3,405,600,000","3,329,600,000","3,212,200,000","3,276,000,000","3,385,500,000","3,468,500,000","3,402,100,000","3,302,000,000","3,457,600,000","3,342,400,000","3,287,300,000","3,247,100,000","3,246,900,000","3,318,900,000","3,354,600,000","3,571,200,000","3,784,600,000","3,852,400,000","3,725,800,000","3,817,700,000","3,899,300,000","3,805,900,000","3,672,300,000","3,732,700,000","3,529,900,000","3,335,000,000","3,418,200,000","3,459,800,000","3,347,700,000","3,120,300,000","2,946,800,000","2,986,200,000","2,688,600,000"
CommonStockEquity,"6,218,000,000","6,286,000,000","6,253,000,000","6,242,000,000","5,839,000,000","5,689,000,000","5,310,000,000","4,832,000,000","4,723,000,000","5,284,000,000","5,247,000,000","5,079,000,000","4,904,000,000","4,630,000,000","4,980,000,000","4,884,000,000","5,346,000,000","5,558,000,000","5,902,000,000","5,630,000,000","5,192,000,000","4,826,000,000","5,031,000,000","5,346,000,000","5,161,000,000","4,983,000,000","5,111,000,000","5,171,000,000","5,078,000,000","5,180,000,000","6,121,000,000","6,232,000,000","5,992,000,000","4,932,000,000","5,211,000,000","5,042,000,000","4,787,000,000","4,063,000,000","3,861,000,000","3,461,000,000","3,293,000,000","3,249,000,000","3,662,000,000","4,054,000,000","3,766,000,000","3,638,000,000","3,874,000,000","3,450,000,000","3,592,000,000","3,753,000,000","3,538,000,000","3,175,000,000","2,830,000,000","3,333,000,000","4,204,000,000","4,624,000,000","4,374,000,000","4,151,000,000","4,003,000,000","3,685,000,000","3,436,000,000","3,234,000,000","3,483,000,000","3,477,000,000","3,214,000,000","3,053,000,000","3,318,000,000","3,413,000,000","3,549,000,000","3,572,000,000","3,255,000,000","3,060,000,000","2,972,000,000","2,911,000,000","2,522,000,000","2,430,000,000","2,236,000,000","2,150,000,000","2,773,000,000","2,725,000,000","3,037,000,000","3,080,000,000","3,103,000,000","3,062,000,000","3,014,000,000","3,097,000,000","3,139,000,000","3,226,000,000","3,137,000,000","3,106,000,000","3,001,000,000","2,935,000,000","2,797,000,000","2,880,000,000","2,921,000,000","2,703,000,000","2,607,000,000","2,509,000,000","2,483,000,000","2,464,000,000","2,452,800,000","2,482,600,000","2,562,500,000","2,481,000,000","2,499,800,000","2,569,200,000","2,641,000,000","2,815,700,000","2,746,600,000","2,557,000,000","2,689,900,000","2,573,300,000","2,515,400,000","2,473,100,000","2,465,500,000","2,528,100,000","2,489,200,000","2,698,900,000","2,773,400,000","2,748,900,000","2,629,800,000","2,654,500,000","2,613,200,000","2,539,200,000","2,532,800,000","2,546,500,000","2,459,800,000","2,415,000,000","2,331,100,000","2,282,300,000","2,191,400,000","2,243,400,000","2,043,500,000","1,977,800,000","1,705,300,000"
CapitalLeaseObligations,"874,000,000","885,000,000","903,000,000","930,000,000","856,000,000","857,000,000","844,000,000","840,000,000","793,000,000","792,000,000","750,000,000","739,000,000","734,000,000",,,,,,,,,,,,,,,,,,,,,,,,,,,,,,,,,,,,,,,,,,,,,,,,,,,,,,,,,,,,,,,,,"10,000,000",,,,"10,000,000",,,,"10,000,000",,,,"10,000,000",,,,"34,000,000",,,,"41,000,000",,,,"27,800,000",,,,"28,700,000",,,,"28,400,000",,,,,,,,,,,,,,,,,,,,,,,,,
NetTangibleAssets,"-2,604,000,000","-2,745,000,000","-2,795,000,000","-3,015,000,000","-1,615,000,000","-1,764,000,000","-1,039,000,000","-1,391,000,000","-1,438,000,000","-1,317,000,000","-1,171,000,000","-1,314,000,000","-1,219,000,000","-1,412,000,000","-963,000,000","-1,022,000,000","-886,000,000","-429,000,000","-78,000,000","-333,000,000","-608,000,000","-729,000,000","-743,000,000","-329,000,000","-752,000,000","-864,000,000","-756,000,000","-710,000,000","-740,000,000","-1,032,000,000","1,949,000,000","1,950,000,000","1,697,000,000","585,000,000","817,000,000","731,000,000","1,060,000,000","217,000,000","89,000,000","-250,000,000","-568,000,000","-536,000,000","-210,000,000","-97,000,000","-331,000,000","-349,000,000","-148,000,000","-314,000,000","-438,000,000","-447,000,000","-716,000,000","-967,000,000","-1,102,000,000","-780,000,000","-68,000,000","25,000,000","-199,000,000","2,063,000,000","1,912,000,000","1,582,000,000","1,344,000,000","1,252,000,000","1,536,000,000","1,680,000,000","1,549,000,000","1,399,000,000","1,668,000,000","1,759,000,000","1,869,000,000","1,859,000,000","1,595,000,000","1,409,000,000","1,298,000,000","1,259,000,000","915,000,000","820,000,000","662,000,000","589,000,000","1,241,000,000","1,176,000,000","1,531,000,000","1,538,000,000","1,529,000,000","1,492,000,000","1,419,000,000","1,449,000,000","1,501,000,000","1,530,000,000","1,415,000,000","1,444,000,000","1,428,000,000","2,364,000,000","2,211,000,000","2,304,000,000","2,921,000,000","2,703,000,000","2,607,000,000","2,509,000,000","2,483,000,000","2,464,000,000","2,452,800,000","2,482,600,000","2,562,500,000","2,481,000,000","2,499,800,000","2,569,200,000","2,641,000,000","2,815,700,000","2,746,600,000","2,557,000,000","2,689,900,000","2,573,300,000","2,515,400,000","2,473,100,000","2,465,500,000","2,528,100,000","2,489,200,000","2,698,900,000","2,773,400,000","2,748,900,000","2,629,800,000","2,654,500,000","2,613,200,000","2,539,200,000","2,532,800,000","2,546,500,000","2,459,800,000","2,415,000,000","2,331,100,000","2,282,300,000","2,191,400,000","2,243,400,000","2,043,500,000","1,977,800,000","1,705,300,000"
WorkingCapital,"2,455,000,000","2,008,000,000","1,837,000,000","1,958,000,000","2,219,000,000","1,967,000,000","2,389,000,000","1,843,000,000","1,871,000,000","1,795,000,000","2,239,000,000","2,001,000,000","1,821,000,000","1,588,000,000","2,808,000,000","2,832,000,000","3,080,000,000","2,583,000,000","3,020,000,000","2,704,000,000","2,373,000,000","2,212,000,000","1,957,000,000","2,732,000,000","2,162,000,000","1,898,000,000","2,522,000,000","2,549,000,000","2,311,000,000","1,974,000,000","4,002,000,000","4,073,000,000","4,322,000,000","3,079,000,000","3,758,000,000","3,604,000,000","3,999,000,000","3,254,000,000","3,287,000,000","2,586,000,000","2,386,000,000","2,992,000,000","3,152,000,000","3,317,000,000","3,335,000,000","3,433,000,000","2,782,000,000","2,513,000,000","2,504,000,000","2,404,000,000","2,379,000,000","2,320,000,000","1,800,000,000","2,138,000,000","2,110,000,000","2,346,000,000","2,457,000,000","2,475,000,000","2,384,000,000","1,989,000,000","1,780,000,000","1,805,000,000","1,793,000,000","1,879,000,000","1,830,000,000","1,670,000,000","1,738,000,000","1,824,000,000","1,888,000,000","1,833,000,000","1,609,000,000","1,505,000,000","1,464,000,000","1,398,000,000","1,135,000,000","1,273,000,000","1,151,000,000","1,025,000,000","982,000,000","850,000,000","773,000,000","748,000,000","672,000,000","631,000,000","503,000,000","550,000,000","683,000,000","710,000,000","669,000,000","678,000,000","850,000,000","790,000,000","680,000,000","748,000,000","1,186,000,000","1,019,000,000","911,000,000","922,000,000","755,000,000","749,000,000","740,500,000","527,500,000","658,700,000","592,100,000","548,300,000","646,100,000","794,300,000","939,300,000","874,800,000","743,700,000","1,025,900,000","892,400,000","823,300,000","744,900,000","769,400,000","716,200,000","780,100,000","697,800,000","842,700,000","926,600,000","836,200,000","832,800,000","955,100,000","887,800,000","710,200,000","746,400,000","608,500,000","601,600,000","686,700,000","718,600,000","824,100,000","634,500,000","560,800,000","640,200,000","546,500,000"
InvestedCapital,"13,371,000,000","12,867,000,000","13,049,000,000","13,399,000,000","12,056,000,000","11,438,000,000","10,813,000,000","11,133,000,000","10,930,000,000","10,336,000,000","10,771,000,000","10,578,000,000","10,183,000,000","9,646,000,000","10,018,000,000","9,954,000,000","10,564,000,000","9,704,000,000","10,607,000,000","10,247,000,000","9,613,000,000","9,242,000,000","9,435,000,000","10,458,000,000","9,425,000,000","9,308,000,000","9,663,000,000","9,686,000,000","9,722,000,000","9,205,000,000","9,469,000,000","9,615,000,000","9,384,000,000","8,338,000,000","8,606,000,000","8,421,000,000","8,188,000,000","8,073,000,000","7,862,000,000","7,072,000,000","6,950,000,000","6,931,000,000","7,354,000,000","7,778,000,000","7,855,000,000","7,709,000,000","7,009,000,000","6,526,000,000","6,755,000,000","7,099,000,000","7,075,000,000","7,377,000,000","6,685,000,000","7,245,000,000","8,151,000,000","8,880,000,000","8,818,000,000","7,171,000,000","5,362,000,000","5,052,000,000","4,900,000,000","4,529,000,000","4,796,000,000","4,812,000,000","4,474,000,000","4,323,000,000","4,571,000,000","4,765,000,000","4,847,000,000","4,922,000,000","4,620,000,000","4,703,000,000","4,648,000,000","4,577,000,000","4,263,000,000","4,348,000,000","4,267,000,000","4,191,000,000","4,974,000,000","5,042,000,000","5,451,000,000","5,465,000,000","5,767,000,000","5,881,000,000","5,999,000,000","6,058,000,000","5,983,000,000","6,068,000,000","6,067,000,000","5,886,000,000","5,722,000,000","4,697,000,000","4,640,000,000","4,564,000,000","4,459,000,000","4,438,000,000","4,359,000,000","4,169,000,000","4,039,000,000","4,042,000,000","4,051,300,000","3,937,000,000","3,990,300,000","4,090,800,000","3,901,600,000","3,761,300,000","3,830,100,000","3,838,500,000","3,784,300,000","3,672,700,000","3,758,300,000","3,723,400,000","3,763,100,000","3,602,200,000","3,680,800,000","3,841,000,000","3,876,800,000","4,005,600,000","4,236,200,000","4,226,800,000","4,212,100,000","4,228,100,000","4,241,200,000","4,256,000,000","4,268,300,000","4,164,500,000","4,197,500,000","4,026,900,000","3,958,500,000","3,900,900,000","3,620,700,000","3,546,700,000","3,456,300,000","3,332,000,000","2,927,300,000"
TangibleBookValue,"-2,604,000,000","-2,745,000,000","-2,795,000,000","-3,015,000,000","-1,615,000,000","-1,764,000,000","-1,039,000,000","-1,391,000,000","-1,438,000,000","-1,317,000,000","-1,171,000,000","-1,314,000,000","-1,219,000,000","-1,412,000,000","-963,000,000","-1,022,000,000","-886,000,000","-429,000,000","-78,000,000","-333,000,000","-608,000,000","-729,000,000","-743,000,000","-329,000,000","-752,000,000","-864,000,000","-756,000,000","-710,000,000","-740,000,000","-1,032,000,000","1,949,000,000","1,950,000,000","1,697,000,000","585,000,000","817,000,000","731,000,000","1,060,000,000","217,000,000","89,000,000","-250,000,000","-568,000,000","-536,000,000","-210,000,000","-97,000,000","-331,000,000","-349,000,000","-148,000,000","-314,000,000","-438,000,000","-447,000,000","-716,000,000","-967,000,000","-1,102,000,000","-780,000,000","-68,000,000","25,000,000","-199,000,000","2,063,000,000","1,912,000,000","1,582,000,000","1,344,000,000","1,252,000,000","1,536,000,000","1,680,000,000","1,549,000,000","1,399,000,000","1,668,000,000","1,759,000,000","1,869,000,000","1,859,000,000","1,595,000,000","1,409,000,000","1,298,000,000","1,259,000,000","915,000,000","820,000,000","662,000,000","589,000,000","1,241,000,000","1,176,000,000","1,531,000,000","1,538,000,000","1,529,000,000","1,492,000,000","1,419,000,000","1,449,000,000","1,501,000,000","1,530,000,000","1,415,000,000","1,444,000,000","1,428,000,000","2,364,000,000","2,211,000,000","2,304,000,000","2,921,000,000","2,703,000,000","2,607,000,000","2,509,000,000","2,483,000,000","2,464,000,000","2,452,800,000","2,482,600,000","2,562,500,000","2,481,000,000","2,499,800,000","2,569,200,000","2,641,000,000","2,815,700,000","2,746,600,000","2,557,000,000","2,689,900,000","2,573,300,000","2,515,400,000","2,473,100,000","2,465,500,000","2,528,100,000","2,489,200,000","2,698,900,000","2,773,400,000","2,748,900,000","2,629,800,000","2,654,500,000","2,613,200,000","2,539,200,000","2,532,800,000","2,546,500,000","2,459,800,000","2,415,000,000","2,331,100,000","2,282,300,000","2,191,400,000","2,243,400,000","2,043,500,000","1,977,800,000","1,705,300,000"
TotalDebt,"8,027,000,000","7,466,000,000","7,699,000,000","8,087,000,000","7,073,000,000","6,606,000,000","6,347,000,000","7,141,000,000","7,000,000,000","5,844,000,000","6,274,000,000","6,238,000,000","6,013,000,000","5,016,000,000","5,038,000,000","5,070,000,000","5,218,000,000","4,146,000,000","4,705,000,000","4,617,000,000","4,421,000,000","4,416,000,000","4,404,000,000","5,112,000,000","4,264,000,000","4,325,000,000","4,552,000,000","4,515,000,000","4,644,000,000","4,025,000,000","3,348,000,000","3,383,000,000","3,392,000,000","3,406,000,000","3,395,000,000","3,379,000,000","3,401,000,000","4,010,000,000","4,001,000,000","3,611,000,000","3,657,000,000","3,682,000,000","3,692,000,000","3,724,000,000","4,089,000,000","4,071,000,000","3,135,000,000","3,076,000,000","3,163,000,000","3,346,000,000","3,537,000,000","4,202,000,000","3,855,000,000","3,912,000,000","3,947,000,000","4,256,000,000","4,444,000,000","3,020,000,000","1,359,000,000","1,367,000,000","1,464,000,000","1,295,000,000","1,313,000,000","1,335,000,000","1,260,000,000","1,270,000,000","1,253,000,000","1,352,000,000","1,298,000,000","1,350,000,000","1,365,000,000","1,643,000,000","1,676,000,000","1,666,000,000","1,741,000,000","1,918,000,000","2,031,000,000","2,051,000,000","2,201,000,000","2,317,000,000","2,414,000,000","2,395,000,000","2,664,000,000","2,819,000,000","2,985,000,000","2,971,000,000","2,844,000,000","2,842,000,000","2,930,000,000","2,790,000,000","2,721,000,000","1,762,000,000","1,843,000,000","1,718,000,000","1,538,000,000","1,735,000,000","1,752,000,000","1,701,000,000","1,556,000,000","1,578,000,000","1,598,500,000","1,482,200,000","1,427,800,000","1,609,800,000","1,401,800,000","1,220,800,000","1,189,100,000","1,022,800,000","1,037,700,000","1,144,100,000","1,068,400,000","1,150,100,000","1,247,700,000","1,129,100,000","1,215,300,000","1,312,900,000","1,387,600,000","1,306,700,000","1,462,800,000","1,477,900,000","1,582,300,000","1,573,600,000","1,628,000,000","1,716,800,000","1,735,500,000","1,618,000,000","1,737,700,000","1,611,900,000","1,627,400,000","1,618,600,000","1,429,300,000","1,303,300,000","1,412,800,000","1,354,200,000","1,222,000,000"
NetDebt,"6,193,000,000","5,576,000,000","5,580,000,000","5,962,000,000","4,409,000,000","3,923,000,000","3,495,000,000","4,049,000,000","4,321,000,000","3,836,000,000","4,092,000,000","4,536,000,000","4,495,000,000","4,114,000,000","3,935,000,000","4,050,000,000","3,872,000,000","2,710,000,000","2,418,000,000","3,048,000,000","3,072,000,000","2,596,000,000","3,475,000,000","3,507,000,000","3,355,000,000","3,014,000,000","3,537,000,000","3,808,000,000","3,909,000,000","3,339,000,000","880,000,000","1,397,000,000","833,000,000","2,290,000,000","1,833,000,000","2,136,000,000","1,380,000,000","2,704,000,000","2,609,000,000","2,594,000,000","2,679,000,000","2,225,000,000","2,391,000,000","2,742,000,000","3,293,000,000","2,730,000,000","2,205,000,000","2,292,000,000","2,474,000,000","2,289,000,000","2,639,000,000","3,150,000,000","3,324,000,000","2,891,000,000","3,431,000,000","3,990,000,000","4,146,000,000","2,494,000,000","1,132,000,000","1,170,000,000","1,282,000,000","840,000,000","997,000,000","916,000,000","844,000,000","804,000,000","764,000,000","882,000,000","658,000,000","641,000,000","804,000,000","1,060,000,000","1,210,000,000","1,167,000,000","1,458,000,000","1,765,000,000","1,954,000,000","1,924,000,000","2,038,000,000","2,181,000,000","2,342,000,000","2,277,000,000","2,505,000,000","2,701,000,000","2,907,000,000","2,850,000,000","2,709,000,000","2,698,000,000","2,785,000,000","2,622,000,000","2,557,000,000","1,666,000,000","1,761,000,000","1,556,000,000","1,274,000,000","1,584,000,000","1,611,000,000","1,531,000,000","1,466,000,000","1,473,000,000","1,489,000,000","1,384,800,000","1,323,400,000","1,487,900,000","1,312,800,000","1,086,500,000","1,070,800,000","922,200,000","964,500,000","1,053,600,000","902,700,000","1,097,600,000","1,130,800,000","1,017,200,000","1,154,000,000","1,259,000,000","1,298,200,000","1,245,300,000","1,382,100,000","1,392,300,000","1,510,200,000","1,536,000,000","1,572,500,000","1,655,800,000","1,672,400,000","1,558,700,000","1,733,700,000","1,564,500,000","1,594,400,000","1,554,000,000","1,398,200,000","1,199,900,000","1,330,700,000","1,287,900,000","1,197,700,000"
ShareIssued,"236,194,347","581,146,136","237,400,853","237,356,580","237,091,179","581,146,136","236,204,417","235,977,363","235,923,428","581,146,136","236,463,211","236,292,889","236,059,963","581,146,136","239,884,829","242,018,104","251,174,399","581,146,136","254,475,927","256,479,780","256,196,874","581,146,136","263,995,244","266,282,301","266,063,408","581,146,136","269,269,200","270,721,376","271,851,912","581,146,136","274,470,102","275,669,126","276,520,298","581,146,136","284,045,268","285,815,596","285,292,896","581,146,136","306,700,744","305,376,184","304,573,002","581,146,136","308,844,692","315,036,804","316,304,268","320,763,630","326,038,512","330,299,638","332,654,134","581,146,136","333,970,612","329,820,354","581,755,682","581,755,682","327,601,336","327,601,336","327,601,336","327,601,336","328,163,506","328,163,506","328,163,506","328,163,506","330,347,802","330,347,802","331,263,326","330,554,580","339,790,326","339,790,326","343,323,046","344,003,590","343,152,970","343,152,970","343,152,970","341,853,278","339,440,000","339,440,000","339,440,000","338,884,386","338,869,564","338,711,064","337,550,992","337,426,428","336,444,146","336,444,146","336,444,146","336,444,146","337,505,856","348,200,000","348,200,000","348,200,000","350,250,000","350,250,000","350,250,000","350,250,000","356,110,000","356,110,000","356,110,000","356,110,000","358,574,000","358,574,000","360,542,000","366,430,000","366,730,000","373,046,000","378,124,000","388,900,000","392,088,000","405,684,000","412,376,000","414,278,000","425,512,000","425,162,000","425,032,000","427,364,000","424,392,000","424,800,000","424,436,000","424,540,000","424,436,000","424,376,000","424,376,000","424,680,000","424,648,000","424,972,000","424,504,000","424,160,000","424,156,000","427,680,000","431,712,000","431,712,000",,,,,
